# Energy(keV)    dEe/dx(keV/micro_m)  dEn/dx(keV/micro_m)  x(micro_m)
1.200000e+01 6.658000e+01 6.579000e+01 6.990072e-02
1.300000e+01 6.930000e+01 6.386000e+01 7.564893e-02
1.400000e+01 7.191000e+01 6.206000e+01 8.135785e-02
1.500000e+01 7.444000e+01 6.037000e+01 8.715509e-02
1.600000e+01 7.688000e+01 5.879000e+01 9.287072e-02
1.700000e+01 7.924000e+01 5.730000e+01 9.860091e-02
1.800000e+01 8.154000e+01 5.590000e+01 1.043259e-01
2.000000e+01 8.615000e+01 5.333000e+01 1.157230e-01
2.250000e+01 9.162000e+01 5.049000e+01 1.299078e-01
2.500000e+01 9.682000e+01 4.798000e+01 1.438841e-01
2.750000e+01 1.018000e+02 4.575000e+01 1.577708e-01
3.000000e+01 1.067000e+02 4.375000e+01 1.714452e-01
3.250000e+01 1.115000e+02 4.194000e+01 1.849808e-01
3.500000e+01 1.162000e+02 4.031000e+01 1.983763e-01
3.750000e+01 1.209000e+02 3.881000e+01 2.114733e-01
4.000000e+01 1.254000e+02 3.745000e+01 2.244638e-01
4.500000e+01 1.344000e+02 3.502000e+01 2.498332e-01
5.000000e+01 1.430000e+02 3.293000e+01 2.745191e-01
5.500000e+01 1.512000e+02 3.112000e+01 2.983987e-01
6.000000e+01 1.591000e+02 2.952000e+01 3.217166e-01
6.500000e+01 1.667000e+02 2.810000e+01 3.443736e-01
7.000000e+01 1.740000e+02 2.683000e+01 3.665249e-01
8.000000e+01 1.878000e+02 2.465000e+01 4.092580e-01
9.000000e+01 2.008000e+02 2.283000e+01 4.500544e-01
1.000000e+02 2.131000e+02 2.130000e+01 4.892906e-01
1.100000e+02 2.250000e+02 1.999000e+01 5.269853e-01
1.200000e+02 2.364000e+02 1.884000e+01 5.634163e-01
1.300000e+02 2.474000e+02 1.784000e+01 5.985321e-01
1.400000e+02 2.582000e+02 1.695000e+01 6.324918e-01
1.500000e+02 2.686000e+02 1.615000e+01 6.655038e-01
1.600000e+02 2.789000e+02 1.544000e+01 6.974699e-01
1.700000e+02 2.889000e+02 1.479000e+01 7.285227e-01
1.800000e+02 2.988000e+02 1.420000e+01 7.588319e-01
2.000000e+02 3.180000e+02 1.317000e+01 8.170013e-01
2.250000e+02 3.411000e+02 1.209000e+01 8.857809e-01
2.500000e+02 3.634000e+02 1.119000e+01 9.508779e-01
2.750000e+02 3.850000e+02 1.043000e+01 1.012557e+00
3.000000e+02 4.058000e+02 9.777000e+00 1.070722e+00
3.250000e+02 4.260000e+02 9.208000e+00 1.130355e+00
3.500000e+02 4.456000e+02 8.707000e+00 1.180178e+00
3.750000e+02 4.646000e+02 8.263000e+00 1.229943e+00
4.000000e+02 4.830000e+02 7.867000e+00 1.279651e+00
4.500000e+02 5.182000e+02 7.188000e+00 1.379017e+00
5.000000e+02 5.512000e+02 6.626000e+00 1.468476e+00
5.500000e+02 5.822000e+02 6.153000e+00 1.557889e+00
6.000000e+02 6.113000e+02 5.748000e+00 1.637434e+00
6.500000e+02 6.386000e+02 5.398000e+00 1.707082e+00
7.000000e+02 6.642000e+02 5.092000e+00 1.786555e+00
8.000000e+02 7.105000e+02 4.580000e+00 1.925809e+00
9.000000e+02 7.509000e+02 4.169000e+00 2.065009e+00
1.000000e+03 7.859000e+02 3.831000e+00 2.184443e+00
1.100000e+03 8.162000e+02 3.547000e+00 2.313743e+00
1.200000e+03 8.422000e+02 3.306000e+00 2.433170e+00
1.300000e+03 8.643000e+02 3.098000e+00 2.542681e+00
1.400000e+03 8.830000e+02 2.916000e+00 2.662126e+00
1.500000e+03 8.987000e+02 2.756000e+00 2.771665e+00
1.600000e+03 9.117000e+02 2.614000e+00 2.881226e+00
1.700000e+03 9.223000e+02 2.487000e+00 2.980857e+00
1.800000e+03 9.307000e+02 2.372000e+00 3.090441e+00
2.000000e+03 9.422000e+02 2.174000e+00 3.299782e+00
2.250000e+03 9.487000e+02 1.972000e+00 3.569021e+00
2.500000e+03 9.488000e+02 1.806000e+00 3.828385e+00
2.750000e+03 9.445000e+02 1.668000e+00 4.087808e+00
3.000000e+03 9.371000e+02 1.550000e+00 4.357256e+00
3.250000e+03 9.277000e+02 1.450000e+00 4.616795e+00
3.500000e+03 9.170000e+02 1.362000e+00 4.886350e+00
3.750000e+03 9.055000e+02 1.285000e+00 5.165917e+00
4.000000e+03 8.935000e+02 1.216000e+00 5.435567e+00
4.500000e+03 8.691000e+02 1.101000e+00 6.005153e+00
5.000000e+03 8.449000e+02 1.006000e+00 6.584826e+00
5.500000e+03 8.215000e+02 9.278000e-01 7.184549e+00
6.000000e+03 7.992000e+02 8.613000e-01 7.804317e+00
6.500000e+03 7.780000e+02 8.042000e-01 8.434136e+00
7.000000e+03 7.580000e+02 7.546000e-01 9.083994e+00
8.000000e+03 7.213000e+02 6.727000e-01 1.043467e+01
9.000000e+03 6.886000e+02 6.077000e-01 1.184532e+01
1.000000e+04 6.594000e+02 5.547000e-01 1.333594e+01
1.100000e+04 6.330000e+02 5.107000e-01 1.487655e+01
1.200000e+04 6.090000e+02 4.736000e-01 1.648715e+01
1.300000e+04 5.871000e+02 4.417000e-01 1.815774e+01
1.400000e+04 5.670000e+02 4.141000e-01 1.988834e+01
1.500000e+04 5.484000e+02 3.899000e-01 2.167893e+01
1.600000e+04 5.311000e+02 3.685000e-01 2.353951e+01
1.700000e+04 5.150000e+02 3.495000e-01 2.545009e+01
1.800000e+04 5.000000e+02 3.324000e-01 2.741069e+01
2.000000e+04 4.747000e+02 3.031000e-01 3.150651e+01
2.250000e+04 4.419000e+02 2.733000e-01 3.695674e+01
2.500000e+04 4.142000e+02 2.491000e-01 4.279703e+01
2.750000e+04 3.898000e+02 2.290000e-01 4.901738e+01
3.000000e+04 3.683000e+02 2.121000e-01 5.560776e+01
3.250000e+04 3.490000e+02 1.976000e-01 6.257000e+01
3.500000e+04 3.316000e+02 1.850000e-01 6.992000e+01
3.750000e+04 3.159000e+02 1.740000e-01 7.763000e+01
4.000000e+04 3.016000e+02 1.644000e-01 8.573000e+01
4.500000e+04 2.765000e+02 1.480000e-01 1.030400e+02
5.000000e+04 2.552000e+02 1.348000e-01 1.218500e+02
5.500000e+04 2.370000e+02 1.238000e-01 1.421800e+02
6.000000e+04 2.211000e+02 1.146000e-01 1.640100e+02
6.500000e+04 2.073000e+02 1.067000e-01 1.873600e+02
7.000000e+04 1.950000e+02 9.983000e-02 2.122100e+02
8.000000e+04 1.745000e+02 8.858000e-02 2.664000e+02
9.000000e+04 1.580000e+02 7.970000e-02 3.265900e+02
1.000000e+05 1.445000e+02 7.251000e-02 3.927500e+02
