# Energy(keV)    dEe/dx(keV/micro_m)  dEn/dx(keV/micro_m)  x(micro_m)
1.200000e+01 5.562000e+01 1.641000e+03 1.201041e-02
1.300000e+01 5.789000e+01 1.685000e+03 1.252917e-02
1.400000e+01 6.007000e+01 1.726000e+03 1.304799e-02
1.500000e+01 6.218000e+01 1.764000e+03 1.356687e-02
1.600000e+01 6.422000e+01 1.800000e+03 1.406698e-02
1.700000e+01 6.620000e+01 1.833000e+03 1.449069e-02
1.800000e+01 6.812000e+01 1.865000e+03 1.500966e-02
2.000000e+01 7.180000e+01 1.923000e+03 1.595243e-02
2.250000e+01 7.616000e+01 1.988000e+03 1.710965e-02
2.500000e+01 8.028000e+01 2.046000e+03 1.824308e-02
2.750000e+01 8.419000e+01 2.097000e+03 1.926292e-02
3.000000e+01 8.794000e+01 2.143000e+03 2.030123e-02
3.250000e+01 9.153000e+01 2.185000e+03 2.133963e-02
3.500000e+01 9.498000e+01 2.223000e+03 2.237811e-02
3.750000e+01 9.832000e+01 2.258000e+03 2.339850e-02
4.000000e+01 1.015000e+02 2.290000e+03 2.434132e-02
4.500000e+01 1.077000e+02 2.348000e+03 2.628250e-02
5.000000e+01 1.135000e+02 2.397000e+03 2.815031e-02
5.500000e+01 1.191000e+02 2.440000e+03 2.999633e-02
6.000000e+01 1.244000e+02 2.477000e+03 3.176822e-02
6.500000e+01 1.294000e+02 2.510000e+03 3.361458e-02
7.000000e+01 1.343000e+02 2.539000e+03 3.534770e-02
8.000000e+01 1.436000e+02 2.588000e+03 3.884920e-02
9.000000e+01 1.523000e+02 2.626000e+03 4.223766e-02
1.000000e+02 1.606000e+02 2.657000e+03 4.553010e-02
1.100000e+02 1.684000e+02 2.682000e+03 4.891922e-02
1.200000e+02 1.759000e+02 2.702000e+03 5.221207e-02
1.300000e+02 1.831000e+02 2.718000e+03 5.538854e-02
1.400000e+02 1.900000e+02 2.730000e+03 5.868168e-02
1.500000e+02 1.966000e+02 2.740000e+03 6.185863e-02
1.600000e+02 2.031000e+02 2.747000e+03 6.515198e-02
1.700000e+02 2.093000e+02 2.752000e+03 6.831296e-02
1.800000e+02 2.154000e+02 2.756000e+03 7.149049e-02
2.000000e+02 2.271000e+02 2.758000e+03 7.784889e-02
2.250000e+02 2.408000e+02 2.755000e+03 8.573086e-02
2.500000e+02 2.539000e+02 2.746000e+03 9.371051e-02
2.750000e+02 2.663000e+02 2.734000e+03 1.015937e-01
3.000000e+02 3.023000e+02 2.719000e+03 1.094592e-01
3.250000e+02 3.342000e+02 2.701000e+03 1.173433e-01
3.500000e+02 3.581000e+02 2.683000e+03 1.252097e-01
3.750000e+02 3.763000e+02 2.663000e+03 1.330614e-01
4.000000e+02 3.907000e+02 2.643000e+03 1.409287e-01
4.500000e+02 4.125000e+02 2.600000e+03 1.567466e-01
5.000000e+02 4.296000e+02 2.557000e+03 1.726485e-01
5.500000e+02 4.453000e+02 2.513000e+03 1.887611e-01
6.000000e+02 4.610000e+02 2.471000e+03 2.050530e-01
6.500000e+02 4.772000e+02 2.429000e+03 2.214460e-01
7.000000e+02 4.942000e+02 2.387000e+03 2.380330e-01
8.000000e+02 5.301000e+02 2.309000e+03 2.716329e-01
9.000000e+02 5.681000e+02 2.235000e+03 3.057763e-01
1.000000e+03 6.071000e+02 2.165000e+03 3.403281e-01
1.100000e+03 6.467000e+02 2.100000e+03 3.752607e-01
1.200000e+03 6.861000e+02 2.040000e+03 4.105857e-01
1.300000e+03 7.253000e+02 1.983000e+03 4.460942e-01
1.400000e+03 7.639000e+02 1.930000e+03 4.818715e-01
1.500000e+03 8.018000e+02 1.879000e+03 5.178461e-01
1.600000e+03 8.390000e+02 1.832000e+03 5.540066e-01
1.700000e+03 8.754000e+02 1.788000e+03 5.903785e-01
1.800000e+03 9.111000e+02 1.746000e+03 6.268099e-01
2.000000e+03 9.803000e+02 1.668000e+03 6.998770e-01
2.250000e+03 1.063000e+03 1.582000e+03 7.916297e-01
2.500000e+03 1.142000e+03 1.506000e+03 8.835118e-01
2.750000e+03 1.218000e+03 1.438000e+03 9.752287e-01
3.000000e+03 1.292000e+03 1.377000e+03 1.065884e+00
3.250000e+03 1.364000e+03 1.321000e+03 1.156685e+00
3.500000e+03 1.434000e+03 1.271000e+03 1.247423e+00
3.750000e+03 1.503000e+03 1.225000e+03 1.338101e+00
4.000000e+03 1.571000e+03 1.182000e+03 1.428730e+00
4.500000e+03 1.705000e+03 1.107000e+03 1.600062e+00
5.000000e+03 1.837000e+03 1.043000e+03 1.771193e+00
5.500000e+03 1.968000e+03 9.860000e+02 1.942112e+00
6.000000e+03 2.099000e+03 9.361000e+02 2.102989e+00
6.500000e+03 2.229000e+03 8.917000e+02 2.263721e+00
7.000000e+03 2.360000e+03 8.520000e+02 2.424323e+00
8.000000e+03 2.620000e+03 7.836000e+02 2.715595e+00
9.000000e+03 2.879000e+03 7.266000e+02 2.996531e+00
1.000000e+04 3.136000e+03 6.784000e+02 3.267196e+00
1.100000e+04 3.390000e+03 6.370000e+02 3.517747e+00
1.200000e+04 3.640000e+03 6.009000e+02 3.758133e+00
1.300000e+04 3.884000e+03 5.692000e+02 3.978488e+00
1.400000e+04 4.123000e+03 5.410000e+02 4.198686e+00
1.500000e+04 4.356000e+03 5.159000e+02 4.408817e+00
1.600000e+04 4.582000e+03 4.932000e+02 4.608911e+00
1.700000e+04 4.802000e+03 4.727000e+02 4.798980e+00
1.800000e+04 5.014000e+03 4.540000e+02 4.979027e+00
2.000000e+04 5.418000e+03 4.212000e+02 5.329122e+00
2.250000e+04 5.885000e+03 3.870000e+02 5.739149e+00
2.500000e+04 6.310000e+03 3.584000e+02 6.119086e+00
2.750000e+04 6.698000e+03 3.342000e+02 6.488904e+00
3.000000e+04 7.052000e+03 3.134000e+02 6.828734e+00
3.250000e+04 7.376000e+03 2.952000e+02 7.158509e+00
3.500000e+04 7.673000e+03 2.793000e+02 7.478268e+00
3.750000e+04 7.948000e+03 2.651000e+02 7.788008e+00
4.000000e+04 8.202000e+03 2.525000e+02 8.087745e+00
4.500000e+04 8.660000e+03 2.308000e+02 8.657431e+00
5.000000e+04 9.066000e+03 2.128000e+02 9.207072e+00
5.500000e+04 9.433000e+03 1.977000e+02 9.736690e+00
6.000000e+04 9.769000e+03 1.847000e+02 1.024632e+01
6.500000e+04 1.008000e+04 1.735000e+02 1.073596e+01
7.000000e+04 1.037000e+04 1.637000e+02 1.121560e+01
8.000000e+04 1.092000e+04 1.473000e+02 1.213528e+01
9.000000e+04 1.141000e+04 1.341000e+02 1.302490e+01
1.000000e+05 1.187000e+04 1.233000e+02 1.387452e+01
