# Energy(keV)    dEe/dx(keV/micro_m)  dEn/dx(keV/micro_m)  x(micro_m)
1.200000e+01 5.928000e+01 1.226000e+03 1.273146e-02
1.300000e+01 6.170000e+01 1.247000e+03 1.348555e-02
1.400000e+01 6.403000e+01 1.266000e+03 1.409468e-02
1.500000e+01 6.628000e+01 1.283000e+03 1.475602e-02
1.600000e+01 6.845000e+01 1.299000e+03 1.539448e-02
1.700000e+01 7.056000e+01 1.313000e+03 1.609720e-02
1.800000e+01 7.260000e+01 1.326000e+03 1.673589e-02
2.000000e+01 7.653000e+01 1.349000e+03 1.800694e-02
2.250000e+01 8.117000e+01 1.373000e+03 1.949308e-02
2.500000e+01 8.556000e+01 1.393000e+03 2.107273e-02
2.750000e+01 8.974000e+01 1.409000e+03 2.253131e-02
3.000000e+01 9.373000e+01 1.422000e+03 2.401770e-02
3.250000e+01 9.756000e+01 1.434000e+03 2.557069e-02
3.500000e+01 1.012000e+02 1.443000e+03 2.705716e-02
3.750000e+01 1.048000e+02 1.451000e+03 2.840158e-02
4.000000e+01 1.082000e+02 1.457000e+03 2.988812e-02
4.500000e+01 1.148000e+02 1.466000e+03 3.278735e-02
5.000000e+01 1.210000e+02 1.472000e+03 3.564001e-02
5.500000e+01 1.269000e+02 1.475000e+03 3.847207e-02
6.000000e+01 1.326000e+02 1.476000e+03 4.127857e-02
6.500000e+01 1.380000e+02 1.475000e+03 4.420566e-02
7.000000e+01 1.432000e+02 1.473000e+03 4.701298e-02
8.000000e+01 1.531000e+02 1.465000e+03 5.265368e-02
9.000000e+01 1.623000e+02 1.455000e+03 5.836506e-02
1.000000e+02 1.711000e+02 1.442000e+03 6.400695e-02
1.100000e+02 1.795000e+02 1.429000e+03 6.970072e-02
1.200000e+02 1.875000e+02 1.414000e+03 7.553370e-02
1.300000e+02 1.951000e+02 1.399000e+03 8.132435e-02
1.400000e+02 2.025000e+02 1.384000e+03 8.713444e-02
1.500000e+02 2.084000e+02 1.368000e+03 9.292653e-02
1.600000e+02 2.111000e+02 1.353000e+03 9.885636e-02
1.700000e+02 2.153000e+02 1.337000e+03 1.048405e-01
1.800000e+02 2.204000e+02 1.322000e+03 1.108434e-01
2.000000e+02 2.329000e+02 1.292000e+03 1.230465e-01
2.250000e+02 2.505000e+02 1.256000e+03 1.384225e-01
2.500000e+02 2.688000e+02 1.222000e+03 1.540147e-01
2.750000e+02 2.869000e+02 1.189000e+03 1.697788e-01
3.000000e+02 3.045000e+02 1.159000e+03 1.857370e-01
3.250000e+02 3.212000e+02 1.130000e+03 2.018848e-01
3.500000e+02 3.369000e+02 1.102000e+03 2.181141e-01
3.750000e+02 3.517000e+02 1.076000e+03 2.344582e-01
4.000000e+02 3.655000e+02 1.052000e+03 2.510765e-01
4.500000e+02 3.904000e+02 1.006000e+03 2.846400e-01
5.000000e+02 4.124000e+02 9.646000e+02 3.187682e-01
5.500000e+02 4.319000e+02 9.271000e+02 3.533654e-01
6.000000e+02 4.497000e+02 8.929000e+02 3.884326e-01
6.500000e+02 4.661000e+02 8.616000e+02 4.239893e-01
7.000000e+02 4.817000e+02 8.327000e+02 4.599355e-01
8.000000e+02 5.112000e+02 7.813000e+02 5.329903e-01
9.000000e+02 5.399000e+02 7.368000e+02 6.072856e-01
1.000000e+03 5.688000e+02 6.980000e+02 6.824190e-01
1.100000e+03 5.985000e+02 6.636000e+02 7.580681e-01
1.200000e+03 6.294000e+02 6.330000e+02 8.339590e-01
1.300000e+03 6.618000e+02 6.055000e+02 9.097836e-01
1.400000e+03 6.955000e+02 5.807000e+02 9.852498e-01
1.500000e+03 7.308000e+02 5.581000e+02 1.063391e+00
1.600000e+03 7.675000e+02 5.375000e+02 1.134384e+00
1.700000e+03 8.056000e+02 5.186000e+02 1.205311e+00
1.800000e+03 8.451000e+02 5.012000e+02 1.276161e+00
2.000000e+03 9.276000e+02 4.701000e+02 1.417689e+00
2.250000e+03 1.037000e+03 4.370000e+02 1.589288e+00
2.500000e+03 1.151000e+03 4.088000e+02 1.750609e+00
2.750000e+03 1.270000e+03 3.845000e+02 1.901702e+00
3.000000e+03 1.392000e+03 3.633000e+02 2.042626e+00
3.250000e+03 1.516000e+03 3.446000e+02 2.173389e+00
3.500000e+03 1.641000e+03 3.279000e+02 2.303911e+00
3.750000e+03 1.767000e+03 3.130000e+02 2.424357e+00
4.000000e+03 1.894000e+03 2.996000e+02 2.534754e+00
4.500000e+03 2.145000e+03 2.763000e+02 2.745339e+00
5.000000e+03 2.392000e+03 2.567000e+02 2.945548e+00
5.500000e+03 2.633000e+03 2.400000e+02 3.115774e+00
6.000000e+03 2.868000e+03 2.256000e+02 3.285747e+00
6.500000e+03 3.095000e+03 2.130000e+02 3.435721e+00
7.000000e+03 3.314000e+03 2.019000e+02 3.585538e+00
8.000000e+03 3.727000e+03 1.831000e+02 3.845338e+00
9.000000e+03 4.108000e+03 1.678000e+02 4.084981e+00
1.000000e+04 4.459000e+03 1.552000e+02 4.314495e+00
1.100000e+04 4.781000e+03 1.444000e+02 4.514106e+00
1.200000e+04 5.076000e+03 1.352000e+02 4.713615e+00
1.300000e+04 5.347000e+03 1.272000e+02 4.893204e+00
1.400000e+04 5.597000e+03 1.202000e+02 5.072734e+00
1.500000e+04 5.826000e+03 1.140000e+02 5.242292e+00
1.600000e+04 6.038000e+03 1.085000e+02 5.411821e+00
1.700000e+04 6.233000e+03 1.035000e+02 5.571408e+00
1.800000e+04 6.414000e+03 9.897000e+01 5.721024e+00
2.000000e+04 6.737000e+03 9.113000e+01 6.020308e+00
2.250000e+04 7.084000e+03 8.306000e+01 6.379501e+00
2.500000e+04 7.379000e+03 7.641000e+01 6.718767e+00
2.750000e+04 7.636000e+03 7.082000e+01 7.048069e+00
3.000000e+04 7.861000e+03 6.606000e+01 7.357448e+00
3.250000e+04 8.062000e+03 6.194000e+01 7.666840e+00
3.500000e+04 8.242000e+03 5.835000e+01 7.976244e+00
3.750000e+04 8.405000e+03 5.518000e+01 8.275698e+00
4.000000e+04 8.554000e+03 5.237000e+01 8.565195e+00
4.500000e+04 8.815000e+03 4.757000e+01 9.134431e+00
5.000000e+04 9.036000e+03 4.364000e+01 9.693729e+00
5.500000e+04 9.227000e+03 4.036000e+01 1.023310e+01
6.000000e+04 9.392000e+03 3.756000e+01 1.077250e+01
6.500000e+04 9.537000e+03 3.515000e+01 1.129196e+01
7.000000e+04 9.664000e+03 3.306000e+01 1.181146e+01
8.000000e+04 9.875000e+03 2.958000e+01 1.283096e+01
9.000000e+04 1.004000e+04 2.681000e+01 1.383050e+01
1.000000e+05 1.016000e+04 2.454000e+01 1.482007e+01
