# Energy(keV)    dEe/dx(keV/micro_m)  dEn/dx(keV/micro_m)  x(micro_m)
1.200000e+01 6.344000e+01 1.547000e+03 1.186634e-02
1.300000e+01 6.603000e+01 1.584000e+03 1.241088e-02
1.400000e+01 6.853000e+01 1.619000e+03 1.302344e-02
1.500000e+01 7.093000e+01 1.651000e+03 1.354179e-02
1.600000e+01 7.326000e+01 1.681000e+03 1.406023e-02
1.700000e+01 7.551000e+01 1.708000e+03 1.457875e-02
1.800000e+01 7.770000e+01 1.734000e+03 1.500267e-02
2.000000e+01 8.190000e+01 1.782000e+03 1.606518e-02
2.250000e+01 8.687000e+01 1.834000e+03 1.729191e-02
2.500000e+01 9.157000e+01 1.879000e+03 1.844912e-02
2.750000e+01 9.604000e+01 1.920000e+03 1.958162e-02
3.000000e+01 1.003000e+02 1.956000e+03 2.071449e-02
3.250000e+01 1.044000e+02 1.988000e+03 2.187167e-02
3.500000e+01 1.083000e+02 2.016000e+03 2.290960e-02
3.750000e+01 1.122000e+02 2.043000e+03 2.404288e-02
4.000000e+01 1.158000e+02 2.066000e+03 2.508107e-02
4.500000e+01 1.229000e+02 2.107000e+03 2.713872e-02
5.000000e+01 1.295000e+02 2.142000e+03 2.923867e-02
5.500000e+01 1.358000e+02 2.171000e+03 3.120128e-02
6.000000e+01 1.419000e+02 2.196000e+03 3.325553e-02
6.500000e+01 1.477000e+02 2.217000e+03 3.521860e-02
7.000000e+01 1.532000e+02 2.235000e+03 3.718185e-02
8.000000e+01 1.638000e+02 2.263000e+03 4.101292e-02
9.000000e+01 1.737000e+02 2.284000e+03 4.484027e-02
1.000000e+02 1.831000e+02 2.298000e+03 4.865008e-02
1.100000e+02 1.921000e+02 2.308000e+03 5.236430e-02
1.200000e+02 2.006000e+02 2.314000e+03 5.606122e-02
1.300000e+02 2.088000e+02 2.317000e+03 5.987220e-02
1.400000e+02 2.167000e+02 2.318000e+03 6.356634e-02
1.500000e+02 2.243000e+02 2.317000e+03 6.716807e-02
1.600000e+02 2.317000e+02 2.314000e+03 7.088343e-02
1.700000e+02 2.388000e+02 2.310000e+03 7.457842e-02
1.800000e+02 2.457000e+02 2.305000e+03 7.827707e-02
2.000000e+02 2.590000e+02 2.292000e+03 8.567158e-02
2.250000e+02 2.747000e+02 2.272000e+03 9.491480e-02
2.500000e+02 3.051000e+02 2.249000e+03 1.041425e-01
2.750000e+02 3.307000e+02 2.225000e+03 1.134677e-01
3.000000e+02 3.503000e+02 2.200000e+03 1.227130e-01
3.250000e+02 3.663000e+02 2.174000e+03 1.320205e-01
3.500000e+02 3.800000e+02 2.148000e+03 1.414258e-01
3.750000e+02 3.926000e+02 2.121000e+03 1.508506e-01
4.000000e+02 4.047000e+02 2.095000e+03 1.602571e-01
4.500000e+02 4.284000e+02 2.044000e+03 1.794604e-01
5.000000e+02 4.525000e+02 1.995000e+03 1.987810e-01
5.500000e+02 4.771000e+02 1.948000e+03 2.183769e-01
6.000000e+02 5.022000e+02 1.902000e+03 2.381692e-01
6.500000e+02 5.273000e+02 1.859000e+03 2.581257e-01
7.000000e+02 5.523000e+02 1.818000e+03 2.782937e-01
8.000000e+02 6.015000e+02 1.741000e+03 3.189433e-01
9.000000e+02 6.489000e+02 1.671000e+03 3.601497e-01
1.000000e+03 6.943000e+02 1.607000e+03 4.017353e-01
1.100000e+03 7.378000e+02 1.549000e+03 4.437003e-01
1.200000e+03 7.794000e+02 1.495000e+03 4.859179e-01
1.300000e+03 8.195000e+02 1.446000e+03 5.283339e-01
1.400000e+03 8.581000e+02 1.400000e+03 5.710191e-01
1.500000e+03 8.955000e+02 1.357000e+03 6.137782e-01
1.600000e+03 9.319000e+02 1.318000e+03 6.567357e-01
1.700000e+03 9.674000e+02 1.281000e+03 6.997529e-01
1.800000e+03 1.002000e+03 1.246000e+03 7.427609e-01
2.000000e+03 1.070000e+03 1.183000e+03 8.287590e-01
2.250000e+03 1.153000e+03 1.115000e+03 9.361379e-01
2.500000e+03 1.235000e+03 1.054000e+03 1.047029e+00
2.750000e+03 1.316000e+03 1.002000e+03 1.148083e+00
3.000000e+03 1.397000e+03 9.545000e+02 1.249023e+00
3.250000e+03 1.478000e+03 9.123000e+02 1.359707e+00
3.500000e+03 1.559000e+03 8.743000e+02 1.460447e+00
3.750000e+03 1.641000e+03 8.397000e+02 1.551243e+00
4.000000e+03 1.724000e+03 8.083000e+02 1.651808e+00
4.500000e+03 1.891000e+03 7.528000e+02 1.842935e+00
5.000000e+03 2.059000e+03 7.055000e+02 2.023882e+00
5.500000e+03 2.228000e+03 6.645000e+02 2.194687e+00
6.000000e+03 2.397000e+03 6.287000e+02 2.365283e+00
6.500000e+03 2.565000e+03 5.970000e+02 2.515892e+00
7.000000e+03 2.732000e+03 5.688000e+02 2.676233e+00
8.000000e+03 3.062000e+03 5.205000e+02 2.957048e+00
9.000000e+03 3.382000e+03 4.807000e+02 3.227498e+00
1.000000e+04 3.690000e+03 4.473000e+02 3.467867e+00
1.100000e+04 3.986000e+03 4.187000e+02 3.698059e+00
1.200000e+04 4.268000e+03 3.939000e+02 3.918136e+00
1.300000e+04 4.538000e+03 3.722000e+02 4.128139e+00
1.400000e+04 4.794000e+03 3.531000e+02 4.318161e+00
1.500000e+04 5.037000e+03 3.360000e+02 4.508074e+00
1.600000e+04 5.269000e+03 3.207000e+02 4.687982e+00
1.700000e+04 5.488000e+03 3.069000e+02 4.867845e+00
1.800000e+04 5.697000e+03 2.943000e+02 5.027760e+00
2.000000e+04 6.083000e+03 2.723000e+02 5.357514e+00
2.250000e+04 6.516000e+03 2.495000e+02 5.737251e+00
2.500000e+04 6.900000e+03 2.305000e+02 6.086989e+00
2.750000e+04 7.244000e+03 2.145000e+02 6.426658e+00
3.000000e+04 7.556000e+03 2.007000e+02 6.756308e+00
3.250000e+04 7.840000e+03 1.888000e+02 7.075954e+00
3.500000e+04 8.102000e+03 1.783000e+02 7.375634e+00
3.750000e+04 8.346000e+03 1.691000e+02 7.675291e+00
4.000000e+04 8.574000e+03 1.608000e+02 7.964969e+00
4.500000e+04 8.995000e+03 1.467000e+02 8.514554e+00
5.000000e+04 9.379000e+03 1.350000e+02 9.054101e+00
5.500000e+04 9.734000e+03 1.252000e+02 9.563690e+00
6.000000e+04 1.007000e+04 1.169000e+02 1.006327e+01
6.500000e+04 1.038000e+04 1.096000e+02 1.054289e+01
7.000000e+04 1.067000e+04 1.033000e+02 1.101251e+01
8.000000e+04 1.122000e+04 9.279000e+01 1.192215e+01
9.000000e+04 1.172000e+04 8.436000e+01 1.278179e+01
1.000000e+05 1.218000e+04 7.743000e+01 1.361143e+01
