# Energy(keV)    dEe/dx(keV/micro_m)  dEn/dx(keV/micro_m)  x(micro_m)
1.200000e+01 6.078000e+01 1.571000e+03 1.186634e-02
1.300000e+01 6.326000e+01 1.610000e+03 1.247918e-02
1.400000e+01 6.565000e+01 1.646000e+03 1.302344e-02
1.500000e+01 6.795000e+01 1.679000e+03 1.354179e-02
1.600000e+01 7.018000e+01 1.710000e+03 1.406023e-02
1.700000e+01 7.234000e+01 1.740000e+03 1.457875e-02
1.800000e+01 7.444000e+01 1.767000e+03 1.507780e-02
2.000000e+01 7.846000e+01 1.817000e+03 1.602030e-02
2.250000e+01 8.322000e+01 1.872000e+03 1.727252e-02
2.500000e+01 8.772000e+01 1.921000e+03 1.840516e-02
2.750000e+01 9.200000e+01 1.964000e+03 1.953817e-02
3.000000e+01 9.610000e+01 2.002000e+03 2.060024e-02
3.250000e+01 1.000000e+02 2.036000e+03 2.173338e-02
3.500000e+01 1.038000e+02 2.067000e+03 2.277147e-02
3.750000e+01 1.074000e+02 2.096000e+03 2.380966e-02
4.000000e+01 1.110000e+02 2.121000e+03 2.484794e-02
4.500000e+01 1.177000e+02 2.166000e+03 2.690595e-02
5.000000e+01 1.241000e+02 2.204000e+03 2.898293e-02
5.500000e+01 1.301000e+02 2.237000e+03 3.094592e-02
6.000000e+01 1.359000e+02 2.264000e+03 3.290912e-02
6.500000e+01 1.415000e+02 2.288000e+03 3.475442e-02
7.000000e+01 1.468000e+02 2.309000e+03 3.671798e-02
8.000000e+01 1.569000e+02 2.342000e+03 4.043167e-02
9.000000e+01 1.664000e+02 2.366000e+03 4.414578e-02
1.000000e+02 1.754000e+02 2.385000e+03 4.786021e-02
1.100000e+02 1.840000e+02 2.398000e+03 5.145765e-02
1.200000e+02 1.922000e+02 2.407000e+03 5.507640e-02
1.300000e+02 2.000000e+02 2.414000e+03 5.867793e-02
1.400000e+02 2.076000e+02 2.417000e+03 6.227624e-02
1.500000e+02 2.149000e+02 2.418000e+03 6.585780e-02
1.600000e+02 2.219000e+02 2.418000e+03 6.946006e-02
1.700000e+02 2.288000e+02 2.416000e+03 7.296259e-02
1.800000e+02 2.354000e+02 2.413000e+03 7.654502e-02
2.000000e+02 2.481000e+02 2.403000e+03 8.363396e-02
2.250000e+02 2.632000e+02 2.386000e+03 9.255199e-02
2.500000e+02 2.919000e+02 2.367000e+03 1.014710e-01
2.750000e+02 3.375000e+02 2.345000e+03 1.103907e-01
3.000000e+02 3.692000e+02 2.322000e+03 1.191982e-01
3.250000e+02 3.915000e+02 2.298000e+03 1.280033e-01
3.500000e+02 4.078000e+02 2.273000e+03 1.367933e-01
3.750000e+02 4.201000e+02 2.248000e+03 1.456810e-01
4.000000e+02 4.302000e+02 2.223000e+03 1.546665e-01
4.500000e+02 4.470000e+02 2.173000e+03 1.727695e-01
5.000000e+02 4.628000e+02 2.125000e+03 1.910354e-01
5.500000e+02 4.794000e+02 2.078000e+03 2.095951e-01
6.000000e+02 4.973000e+02 2.033000e+03 2.284633e-01
6.500000e+02 5.165000e+02 1.989000e+03 2.474156e-01
7.000000e+02 5.369000e+02 1.948000e+03 2.666619e-01
8.000000e+02 5.799000e+02 1.870000e+03 3.055628e-01
9.000000e+02 6.246000e+02 1.798000e+03 3.450209e-01
1.000000e+03 6.697000e+02 1.733000e+03 3.848744e-01
1.100000e+03 7.145000e+02 1.672000e+03 4.250912e-01
1.200000e+03 7.584000e+02 1.617000e+03 4.654922e-01
1.300000e+03 8.012000e+02 1.565000e+03 5.061754e-01
1.400000e+03 8.427000e+02 1.517000e+03 5.470431e-01
1.500000e+03 8.830000e+02 1.473000e+03 5.879842e-01
1.600000e+03 9.221000e+02 1.431000e+03 6.291103e-01
1.700000e+03 9.600000e+02 1.393000e+03 6.702122e-01
1.800000e+03 9.968000e+02 1.356000e+03 7.112891e-01
2.000000e+03 1.068000e+03 1.290000e+03 7.935515e-01
2.250000e+03 1.151000e+03 1.217000e+03 8.962963e-01
2.500000e+03 1.231000e+03 1.153000e+03 9.985317e-01
2.750000e+03 1.309000e+03 1.096000e+03 1.097222e+00
3.000000e+03 1.384000e+03 1.046000e+03 1.198090e+00
3.250000e+03 1.458000e+03 1.001000e+03 1.298874e+00
3.500000e+03 1.531000e+03 9.596000e+02 1.399589e+00
3.750000e+03 1.603000e+03 9.225000e+02 1.500214e+00
4.000000e+03 1.676000e+03 8.885000e+02 1.590915e+00
4.500000e+03 1.821000e+03 8.286000e+02 1.782065e+00
5.000000e+03 1.968000e+03 7.774000e+02 1.963088e+00
5.500000e+03 2.116000e+03 7.329000e+02 2.133989e+00
6.000000e+03 2.265000e+03 6.940000e+02 2.304686e+00
6.500000e+03 2.416000e+03 6.595000e+02 2.465321e+00
7.000000e+03 2.567000e+03 6.287000e+02 2.625790e+00
8.000000e+03 2.870000e+03 5.760000e+02 2.916777e+00
9.000000e+03 3.172000e+03 5.325000e+02 3.197376e+00
1.000000e+04 3.468000e+03 4.958000e+02 3.457795e+00
1.100000e+04 3.758000e+03 4.645000e+02 3.698102e+00
1.200000e+04 4.040000e+03 4.373000e+02 3.918338e+00
1.300000e+04 4.312000e+03 4.134000e+02 4.138409e+00
1.400000e+04 4.573000e+03 3.923000e+02 4.338474e+00
1.500000e+04 4.824000e+03 3.735000e+02 4.538440e+00
1.600000e+04 5.065000e+03 3.567000e+02 4.718438e+00
1.700000e+04 5.295000e+03 3.414000e+02 4.898364e+00
1.800000e+04 5.514000e+03 3.275000e+02 5.068293e+00
2.000000e+04 5.924000e+03 3.033000e+02 5.398153e+00
2.250000e+04 6.383000e+03 2.780000e+02 5.787946e+00
2.500000e+04 6.792000e+03 2.570000e+02 6.147706e+00
2.750000e+04 7.157000e+03 2.393000e+02 6.497392e+00
3.000000e+04 7.485000e+03 2.240000e+02 6.817127e+00
3.250000e+04 7.782000e+03 2.108000e+02 7.136793e+00
3.500000e+04 8.053000e+03 1.992000e+02 7.446471e+00
3.750000e+04 8.302000e+03 1.889000e+02 7.746142e+00
4.000000e+04 8.534000e+03 1.797000e+02 8.035835e+00
4.500000e+04 8.956000e+03 1.640000e+02 8.585434e+00
5.000000e+04 9.335000e+03 1.510000e+02 9.124993e+00
5.500000e+04 9.682000e+03 1.401000e+02 9.644565e+00
6.000000e+04 1.001000e+04 1.308000e+02 1.014416e+01
6.500000e+04 1.031000e+04 1.228000e+02 1.062378e+01
7.000000e+04 1.060000e+04 1.157000e+02 1.109340e+01
8.000000e+04 1.114000e+04 1.040000e+02 1.200304e+01
9.000000e+04 1.163000e+04 9.455000e+01 1.287266e+01
1.000000e+05 1.209000e+04 8.681000e+01 1.371228e+01
