# Energy(keV)    dEe/dx(keV/micro_m)  dEn/dx(keV/micro_m)  x(micro_m)
1.200000e+01 6.608000e+01 1.277000e+03 1.255747e-02
1.300000e+01 6.877000e+01 1.300000e+03 1.321855e-02
1.400000e+01 7.137000e+01 1.321000e+03 1.385713e-02
1.500000e+01 7.388000e+01 1.340000e+03 1.446720e-02
1.600000e+01 7.630000e+01 1.358000e+03 1.510596e-02
1.700000e+01 7.865000e+01 1.374000e+03 1.573849e-02
1.800000e+01 8.093000e+01 1.389000e+03 1.637712e-02
2.000000e+01 8.530000e+01 1.415000e+03 1.753311e-02
2.250000e+01 9.048000e+01 1.443000e+03 1.899184e-02
2.500000e+01 9.537000e+01 1.466000e+03 2.047828e-02
2.750000e+01 1.000000e+02 1.486000e+03 2.193764e-02
3.000000e+01 1.045000e+02 1.502000e+03 2.328218e-02
3.250000e+01 1.087000e+02 1.516000e+03 2.476873e-02
3.500000e+01 1.128000e+02 1.528000e+03 2.613465e-02
3.750000e+01 1.168000e+02 1.538000e+03 2.747981e-02
4.000000e+01 1.206000e+02 1.547000e+03 2.884597e-02
4.500000e+01 1.280000e+02 1.561000e+03 3.155788e-02
5.000000e+01 1.349000e+02 1.570000e+03 3.427025e-02
5.500000e+01 1.415000e+02 1.576000e+03 3.686814e-02
6.000000e+01 1.478000e+02 1.580000e+03 3.958118e-02
6.500000e+01 1.538000e+02 1.582000e+03 4.219964e-02
7.000000e+01 1.596000e+02 1.582000e+03 4.489332e-02
8.000000e+01 1.706000e+02 1.579000e+03 5.010629e-02
9.000000e+01 1.810000e+02 1.572000e+03 5.537635e-02
1.000000e+02 1.908000e+02 1.562000e+03 6.069053e-02
1.100000e+02 2.001000e+02 1.551000e+03 6.598129e-02
1.200000e+02 2.090000e+02 1.538000e+03 7.127258e-02
1.300000e+02 2.175000e+02 1.525000e+03 7.654580e-02
1.400000e+02 2.257000e+02 1.511000e+03 8.191050e-02
1.500000e+02 2.336000e+02 1.497000e+03 8.720310e-02
1.600000e+02 2.416000e+02 1.482000e+03 9.266920e-02
1.700000e+02 2.635000e+02 1.468000e+03 9.805804e-02
1.800000e+02 2.812000e+02 1.453000e+03 1.034069e-01
2.000000e+02 3.077000e+02 1.424000e+03 1.141460e-01
2.250000e+02 3.303000e+02 1.389000e+03 1.277536e-01
2.500000e+02 3.470000e+02 1.355000e+03 1.414590e-01
2.750000e+02 3.613000e+02 1.322000e+03 1.553371e-01
3.000000e+02 3.749000e+02 1.291000e+03 1.693134e-01
3.250000e+02 3.886000e+02 1.261000e+03 1.835638e-01
3.500000e+02 4.027000e+02 1.233000e+03 1.978326e-01
3.750000e+02 4.172000e+02 1.206000e+03 2.123923e-01
4.000000e+02 4.323000e+02 1.180000e+03 2.269535e-01
4.500000e+02 4.633000e+02 1.132000e+03 2.564463e-01
5.000000e+02 4.950000e+02 1.089000e+03 2.863116e-01
5.500000e+02 5.267000e+02 1.049000e+03 3.163719e-01
6.000000e+02 5.582000e+02 1.012000e+03 3.465959e-01
6.500000e+02 5.890000e+02 9.782000e+02 3.768873e-01
7.000000e+02 6.192000e+02 9.470000e+02 4.072590e-01
8.000000e+02 6.773000e+02 8.911000e+02 4.681780e-01
9.000000e+02 7.324000e+02 8.425000e+02 5.289916e-01
1.000000e+03 7.848000e+02 7.997000e+02 5.896558e-01
1.100000e+03 8.350000e+02 7.618000e+02 6.499302e-01
1.200000e+03 8.834000e+02 7.278000e+02 7.097476e-01
1.300000e+03 9.303000e+02 6.973000e+02 7.692079e-01
1.400000e+03 9.760000e+02 6.696000e+02 8.280029e-01
1.500000e+03 1.021000e+03 6.443000e+02 8.861633e-01
1.600000e+03 1.065000e+03 6.212000e+02 9.437575e-01
1.700000e+03 1.108000e+03 5.999000e+02 1.000619e+00
1.800000e+03 1.152000e+03 5.803000e+02 1.059986e+00
2.000000e+03 1.237000e+03 5.452000e+02 1.170958e+00
2.250000e+03 1.344000e+03 5.077000e+02 1.302071e+00
2.500000e+03 1.450000e+03 4.757000e+02 1.432912e+00
2.750000e+03 1.558000e+03 4.480000e+02 1.553709e+00
3.000000e+03 1.665000e+03 4.237000e+02 1.674303e+00
3.250000e+03 1.773000e+03 4.023000e+02 1.784865e+00
3.500000e+03 1.881000e+03 3.833000e+02 1.895287e+00
3.750000e+03 1.990000e+03 3.661000e+02 2.005575e+00
4.000000e+03 2.098000e+03 3.507000e+02 2.105878e+00
4.500000e+03 2.313000e+03 3.238000e+02 2.296409e+00
5.000000e+03 2.526000e+03 3.012000e+02 2.476716e+00
5.500000e+03 2.735000e+03 2.819000e+02 2.646904e+00
6.000000e+03 2.939000e+03 2.652000e+02 2.797083e+00
6.500000e+03 3.138000e+03 2.506000e+02 2.947110e+00
7.000000e+03 3.331000e+03 2.377000e+02 3.097029e+00
8.000000e+03 3.697000e+03 2.158000e+02 3.357032e+00
9.000000e+03 4.038000e+03 1.980000e+02 3.596899e+00
1.000000e+04 4.353000e+03 1.832000e+02 3.826651e+00
1.100000e+04 4.643000e+03 1.707000e+02 4.036415e+00
1.200000e+04 4.911000e+03 1.599000e+02 4.236139e+00
1.300000e+04 5.157000e+03 1.505000e+02 4.425863e+00
1.400000e+04 5.384000e+03 1.423000e+02 4.615531e+00
1.500000e+04 5.594000e+03 1.350000e+02 4.785276e+00
1.600000e+04 5.788000e+03 1.285000e+02 4.954989e+00
1.700000e+04 5.967000e+03 1.226000e+02 5.124677e+00
1.800000e+04 6.133000e+03 1.173000e+02 5.284402e+00
2.000000e+04 6.432000e+03 1.081000e+02 5.593954e+00
2.250000e+04 6.754000e+03 9.862000e+01 5.963451e+00
2.500000e+04 7.032000e+03 9.078000e+01 6.322953e+00
2.750000e+04 7.276000e+03 8.418000e+01 6.662493e+00
3.000000e+04 7.494000e+03 7.856000e+01 7.002024e+00
3.250000e+04 7.692000e+03 7.369000e+01 7.321618e+00
3.500000e+04 7.873000e+03 6.944000e+01 7.641205e+00
3.750000e+04 8.040000e+03 6.569000e+01 7.950826e+00
4.000000e+04 8.196000e+03 6.236000e+01 8.260455e+00
4.500000e+04 8.479000e+03 5.669000e+01 8.849994e+00
5.000000e+04 8.730000e+03 5.203000e+01 9.429543e+00
5.500000e+04 8.955000e+03 4.813000e+01 9.989131e+00
6.000000e+04 9.160000e+03 4.481000e+01 1.053875e+01
6.500000e+04 9.345000e+03 4.195000e+01 1.106839e+01
7.000000e+04 9.515000e+03 3.946000e+01 1.159805e+01
8.000000e+04 9.813000e+03 3.533000e+01 1.262785e+01
9.000000e+04 1.006000e+04 3.203000e+01 1.362764e+01
1.000000e+05 1.028000e+04 2.933000e+01 1.460743e+01
