# Energy(keV)    dEe/dx(keV/micro_m)  dEn/dx(keV/micro_m)  x(micro_m)
1.200000e+01 6.311000e+01 1.460000e+03 1.184694e-02
1.300000e+01 6.569000e+01 1.492000e+03 1.247958e-02
1.400000e+01 6.817000e+01 1.521000e+03 1.302459e-02
1.500000e+01 7.056000e+01 1.548000e+03 1.363598e-02
1.600000e+01 7.288000e+01 1.573000e+03 1.415380e-02
1.700000e+01 7.512000e+01 1.596000e+03 1.469864e-02
1.800000e+01 7.730000e+01 1.618000e+03 1.521644e-02
2.000000e+01 8.148000e+01 1.657000e+03 1.634656e-02
2.250000e+01 8.642000e+01 1.699000e+03 1.759773e-02
2.500000e+01 9.110000e+01 1.736000e+03 1.886955e-02
2.750000e+01 9.554000e+01 1.767000e+03 2.012088e-02
3.000000e+01 9.979000e+01 1.795000e+03 2.125229e-02
3.250000e+01 1.039000e+02 1.820000e+03 2.250400e-02
3.500000e+01 1.078000e+02 1.841000e+03 2.368122e-02
3.750000e+01 1.116000e+02 1.861000e+03 2.481310e-02
4.000000e+01 1.152000e+02 1.878000e+03 2.597018e-02
4.500000e+01 1.222000e+02 1.907000e+03 2.823491e-02
5.000000e+01 1.288000e+02 1.931000e+03 3.052474e-02
5.500000e+01 1.351000e+02 1.950000e+03 3.271972e-02
6.000000e+01 1.411000e+02 1.966000e+03 3.489083e-02
6.500000e+01 1.469000e+02 1.978000e+03 3.706670e-02
7.000000e+01 1.524000e+02 1.988000e+03 3.923837e-02
8.000000e+01 1.630000e+02 2.002000e+03 4.358681e-02
9.000000e+01 1.728000e+02 2.010000e+03 4.784036e-02
1.000000e+02 1.822000e+02 2.013000e+03 5.207149e-02
1.100000e+02 1.911000e+02 2.013000e+03 5.632575e-02
1.200000e+02 1.996000e+02 2.010000e+03 6.046205e-02
1.300000e+02 2.077000e+02 2.005000e+03 6.469451e-02
1.400000e+02 2.156000e+02 1.998000e+03 6.892735e-02
1.500000e+02 2.231000e+02 1.990000e+03 7.314267e-02
1.600000e+02 2.305000e+02 1.981000e+03 7.739780e-02
1.700000e+02 2.376000e+02 1.971000e+03 8.161379e-02
1.800000e+02 2.444000e+02 1.961000e+03 8.584760e-02
2.000000e+02 2.717000e+02 1.939000e+03 9.437341e-02
2.250000e+02 3.261000e+02 1.910000e+03 1.048857e-01
2.500000e+02 3.585000e+02 1.879000e+03 1.153782e-01
2.750000e+02 3.785000e+02 1.849000e+03 1.259513e-01
3.000000e+02 3.920000e+02 1.819000e+03 1.365220e-01
3.250000e+02 4.023000e+02 1.789000e+03 1.472904e-01
3.500000e+02 4.115000e+02 1.760000e+03 1.581529e-01
3.750000e+02 4.206000e+02 1.731000e+03 1.691166e-01
4.000000e+02 4.303000e+02 1.704000e+03 1.800776e-01
4.500000e+02 4.519000e+02 1.651000e+03 2.024895e-01
5.000000e+02 4.767000e+02 1.601000e+03 2.252921e-01
5.500000e+02 5.039000e+02 1.554000e+03 2.482729e-01
6.000000e+02 5.327000e+02 1.511000e+03 2.714657e-01
6.500000e+02 5.626000e+02 1.469000e+03 2.949191e-01
7.000000e+02 5.928000e+02 1.431000e+03 3.183749e-01
8.000000e+02 6.533000e+02 1.360000e+03 3.657765e-01
9.000000e+02 7.121000e+02 1.297000e+03 4.134114e-01
1.000000e+03 7.684000e+02 1.241000e+03 4.611032e-01
1.100000e+03 8.220000e+02 1.189000e+03 5.088504e-01
1.200000e+03 8.729000e+02 1.143000e+03 5.565582e-01
1.300000e+03 9.213000e+02 1.101000e+03 6.042271e-01
1.400000e+03 9.675000e+02 1.062000e+03 6.517599e-01
1.500000e+03 1.012000e+03 1.027000e+03 6.991570e-01
1.600000e+03 1.054000e+03 9.936000e+02 7.463209e-01
1.700000e+03 1.096000e+03 9.631000e+02 7.933779e-01
1.800000e+03 1.136000e+03 9.347000e+02 8.400905e-01
2.000000e+03 1.213000e+03 8.834000e+02 9.329856e-01
2.250000e+03 1.306000e+03 8.279000e+02 1.048292e+00
2.500000e+03 1.397000e+03 7.799000e+02 1.159325e+00
2.750000e+03 1.486000e+03 7.380000e+02 1.270189e+00
3.000000e+03 1.576000e+03 7.010000e+02 1.380940e+00
3.250000e+03 1.666000e+03 6.681000e+02 1.481714e+00
3.500000e+03 1.756000e+03 6.385000e+02 1.592207e+00
3.750000e+03 1.848000e+03 6.118000e+02 1.692756e+00
4.000000e+03 1.940000e+03 5.876000e+02 1.783337e+00
4.500000e+03 2.127000e+03 5.452000e+02 1.974177e+00
5.000000e+03 2.316000e+03 5.093000e+02 2.154838e+00
5.500000e+03 2.507000e+03 4.783000e+02 2.325350e+00
6.000000e+03 2.698000e+03 4.514000e+02 2.485747e+00
6.500000e+03 2.888000e+03 4.277000e+02 2.636078e+00
7.000000e+03 3.077000e+03 4.067000e+02 2.776344e+00
8.000000e+03 3.447000e+03 3.709000e+02 3.046735e+00
9.000000e+03 3.803000e+03 3.416000e+02 3.296902e+00
1.000000e+04 4.142000e+03 3.170000e+02 3.526961e+00
1.100000e+04 4.464000e+03 2.961000e+02 3.736962e+00
1.200000e+04 4.767000e+03 2.781000e+02 3.936881e+00
1.300000e+04 5.052000e+03 2.623000e+02 4.126766e+00
1.400000e+04 5.320000e+03 2.485000e+02 4.316556e+00
1.500000e+04 5.571000e+03 2.361000e+02 4.486400e+00
1.600000e+04 5.806000e+03 2.251000e+02 4.656197e+00
1.700000e+04 6.026000e+03 2.151000e+02 4.816010e+00
1.800000e+04 6.233000e+03 2.061000e+02 4.975783e+00
2.000000e+04 6.608000e+03 1.904000e+02 5.275459e+00
2.250000e+04 7.019000e+03 1.741000e+02 5.625095e+00
2.500000e+04 7.376000e+03 1.606000e+02 5.964680e+00
2.750000e+04 7.690000e+03 1.492000e+02 6.284295e+00
3.000000e+04 7.972000e+03 1.394000e+02 6.603871e+00
3.250000e+04 8.227000e+03 1.310000e+02 6.903495e+00
3.500000e+04 8.461000e+03 1.236000e+02 7.193140e+00
3.750000e+04 8.679000e+03 1.171000e+02 7.482774e+00
4.000000e+04 8.883000e+03 1.113000e+02 7.762427e+00
4.500000e+04 9.258000e+03 1.013000e+02 8.301968e+00
5.000000e+04 9.599000e+03 9.316000e+01 8.831505e+00
5.500000e+04 9.914000e+03 8.630000e+01 9.331089e+00
6.000000e+04 1.021000e+04 8.046000e+01 9.830670e+00
6.500000e+04 1.048000e+04 7.541000e+01 1.031028e+01
7.000000e+04 1.074000e+04 7.101000e+01 1.076993e+01
8.000000e+04 1.121000e+04 6.369000e+01 1.167961e+01
9.000000e+04 1.163000e+04 5.783000e+01 1.254929e+01
1.000000e+05 1.202000e+04 5.302000e+01 1.338898e+01
