# Energy(keV)    dEe/dx(keV/micro_m)  dEn/dx(keV/micro_m)  x(micro_m)
1.200000e+01 7.667000e+01 1.164000e+03 1.269252e-02
1.300000e+01 7.980000e+01 1.182000e+03 1.344656e-02
1.400000e+01 8.281000e+01 1.198000e+03 1.408474e-02
1.500000e+01 8.571000e+01 1.213000e+03 1.483880e-02
1.600000e+01 8.853000e+01 1.226000e+03 1.547708e-02
1.700000e+01 9.125000e+01 1.237000e+03 1.610869e-02
1.800000e+01 9.390000e+01 1.248000e+03 1.683954e-02
2.000000e+01 9.897000e+01 1.267000e+03 1.813946e-02
2.250000e+01 1.050000e+02 1.285000e+03 1.971750e-02
2.500000e+01 1.107000e+02 1.301000e+03 2.129601e-02
2.750000e+01 1.161000e+02 1.313000e+03 2.287488e-02
3.000000e+01 1.212000e+02 1.322000e+03 2.445404e-02
3.250000e+01 1.262000e+02 1.330000e+03 2.596228e-02
3.500000e+01 1.309000e+02 1.336000e+03 2.751345e-02
3.750000e+01 1.355000e+02 1.341000e+03 2.897775e-02
4.000000e+01 1.400000e+02 1.344000e+03 3.055765e-02
4.500000e+01 1.485000e+02 1.348000e+03 3.350284e-02
5.000000e+01 1.565000e+02 1.349000e+03 3.656952e-02
5.500000e+01 1.641000e+02 1.348000e+03 3.958813e-02
6.000000e+01 1.714000e+02 1.345000e+03 4.253434e-02
6.500000e+01 1.784000e+02 1.341000e+03 4.555414e-02
7.000000e+01 1.852000e+02 1.336000e+03 4.850082e-02
8.000000e+01 1.980000e+02 1.323000e+03 5.444814e-02
9.000000e+01 2.100000e+02 1.308000e+03 6.051124e-02
1.000000e+02 2.213000e+02 1.292000e+03 6.657507e-02
1.100000e+02 2.321000e+02 1.275000e+03 7.261983e-02
1.200000e+02 2.424000e+02 1.259000e+03 7.873513e-02
1.300000e+02 2.550000e+02 1.241000e+03 8.489558e-02
1.400000e+02 2.749000e+02 1.225000e+03 9.101264e-02
1.500000e+02 2.915000e+02 1.208000e+03 9.713053e-02
1.600000e+02 3.057000e+02 1.191000e+03 1.033443e-01
1.700000e+02 3.180000e+02 1.175000e+03 1.095774e-01
1.800000e+02 3.290000e+02 1.159000e+03 1.156971e-01
2.000000e+02 3.484000e+02 1.128000e+03 1.282004e-01
2.250000e+02 3.699000e+02 1.092000e+03 1.441129e-01
2.500000e+02 3.902000e+02 1.058000e+03 1.601190e-01
2.750000e+02 4.101000e+02 1.027000e+03 1.762792e-01
3.000000e+02 4.299000e+02 9.969000e+02 1.925605e-01
3.250000e+02 4.496000e+02 9.691000e+02 2.090141e-01
3.500000e+02 4.691000e+02 9.430000e+02 2.255447e-01
3.750000e+02 4.885000e+02 9.185000e+02 2.422873e-01
4.000000e+02 5.076000e+02 8.954000e+02 2.590152e-01
4.500000e+02 5.450000e+02 8.531000e+02 2.926282e-01
5.000000e+02 5.813000e+02 8.152000e+02 3.264017e-01
5.500000e+02 6.165000e+02 7.811000e+02 3.602235e-01
6.000000e+02 6.507000e+02 7.502000e+02 3.940331e-01
6.500000e+02 6.839000e+02 7.221000e+02 4.277762e-01
7.000000e+02 7.164000e+02 6.963000e+02 4.614918e-01
8.000000e+02 7.793000e+02 6.508000e+02 5.283855e-01
9.000000e+02 8.400000e+02 6.117000e+02 5.946441e-01
1.000000e+03 8.992000e+02 5.778000e+02 6.598014e-01
1.100000e+03 9.573000e+02 5.480000e+02 7.240549e-01
1.200000e+03 1.015000e+03 5.216000e+02 7.870143e-01
1.300000e+03 1.071000e+03 4.980000e+02 8.489074e-01
1.400000e+03 1.127000e+03 4.767000e+02 9.094262e-01
1.500000e+03 1.183000e+03 4.575000e+02 9.687950e-01
1.600000e+03 1.239000e+03 4.399000e+02 1.030918e+00
1.700000e+03 1.294000e+03 4.239000e+02 1.081506e+00
1.800000e+03 1.350000e+03 4.091000e+02 1.141810e+00
2.000000e+03 1.460000e+03 3.829000e+02 1.242680e+00
2.250000e+03 1.597000e+03 3.551000e+02 1.373384e+00
2.500000e+03 1.733000e+03 3.315000e+02 1.493973e+00
2.750000e+03 1.868000e+03 3.113000e+02 1.614308e+00
3.000000e+03 2.002000e+03 2.937000e+02 1.714773e+00
3.250000e+03 2.133000e+03 2.782000e+02 1.824934e+00
3.500000e+03 2.263000e+03 2.644000e+02 1.925091e+00
3.750000e+03 2.391000e+03 2.521000e+02 2.015266e+00
4.000000e+03 2.516000e+03 2.410000e+02 2.105361e+00
4.500000e+03 2.760000e+03 2.219000e+02 2.275491e+00
5.000000e+03 2.994000e+03 2.059000e+02 2.435480e+00
5.500000e+03 3.217000e+03 1.922000e+02 2.585413e+00
6.000000e+03 3.430000e+03 1.805000e+02 2.725300e+00
6.500000e+03 3.633000e+03 1.702000e+02 2.855183e+00
7.000000e+03 3.825000e+03 1.612000e+02 2.984985e+00
8.000000e+03 4.182000e+03 1.460000e+02 3.224683e+00
9.000000e+03 4.504000e+03 1.336000e+02 3.444350e+00
1.000000e+04 4.794000e+03 1.234000e+02 3.653980e+00
1.100000e+04 5.056000e+03 1.148000e+02 3.843652e+00
1.200000e+04 5.292000e+03 1.073000e+02 4.033284e+00
1.300000e+04 5.507000e+03 1.009000e+02 4.212935e+00
1.400000e+04 5.701000e+03 9.528000e+01 4.392563e+00
1.500000e+04 5.879000e+03 9.030000e+01 4.562226e+00
1.600000e+04 6.041000e+03 8.586000e+01 4.721931e+00
1.700000e+04 6.190000e+03 8.187000e+01 4.881619e+00
1.800000e+04 6.328000e+03 7.827000e+01 5.041311e+00
2.000000e+04 6.574000e+03 7.201000e+01 5.340853e+00
2.250000e+04 6.837000e+03 6.557000e+01 5.710330e+00
2.500000e+04 7.065000e+03 6.027000e+01 6.069822e+00
2.750000e+04 7.265000e+03 5.583000e+01 6.409387e+00
3.000000e+04 7.443000e+03 5.204000e+01 6.748948e+00
3.250000e+04 7.603000e+03 4.877000e+01 7.078549e+00
3.500000e+04 7.749000e+03 4.592000e+01 7.398182e+00
3.750000e+04 7.882000e+03 4.341000e+01 7.717826e+00
4.000000e+04 8.004000e+03 4.117000e+01 8.027496e+00
4.500000e+04 8.221000e+03 3.738000e+01 8.637107e+00
5.000000e+04 8.408000e+03 3.427000e+01 9.236740e+00
5.500000e+04 8.570000e+03 3.167000e+01 9.826393e+00
6.000000e+04 8.711000e+03 2.946000e+01 1.039609e+01
6.500000e+04 8.835000e+03 2.756000e+01 1.096579e+01
7.000000e+04 8.944000e+03 2.591000e+01 1.152552e+01
8.000000e+04 9.123000e+03 2.317000e+01 1.262551e+01
9.000000e+04 9.258000e+03 2.098000e+01 1.371545e+01
1.000000e+05 9.359000e+03 1.920000e+01 1.478539e+01
