# Energy(keV)    dEe/dx(keV/micro_m)  dEn/dx(keV/micro_m)  x(micro_m)
1.000000e+01 9.416000e+01 1.772000e+03 7.677239e-03
1.100000e+01 9.876000e+01 1.815000e+03 8.130806e-03
1.200000e+01 1.031000e+02 1.852000e+03 8.553946e-03
1.300000e+01 1.074000e+02 1.887000e+03 9.069730e-03
1.400000e+01 1.114000e+02 1.918000e+03 9.493155e-03
1.500000e+01 1.153000e+02 1.946000e+03 9.916653e-03
1.600000e+01 1.191000e+02 1.972000e+03 1.031746e-02
1.700000e+01 1.228000e+02 1.996000e+03 1.074104e-02
1.800000e+01 1.263000e+02 2.018000e+03 1.116468e-02
2.000000e+01 1.332000e+02 2.057000e+03 1.201208e-02
2.250000e+01 1.412000e+02 2.098000e+03 1.298114e-02
2.500000e+01 1.489000e+02 2.133000e+03 1.401535e-02
2.750000e+01 1.562000e+02 2.162000e+03 1.498433e-02
3.000000e+01 1.631000e+02 2.187000e+03 1.592545e-02
3.250000e+01 1.698000e+02 2.208000e+03 1.686683e-02
3.500000e+01 1.762000e+02 2.226000e+03 1.781404e-02
3.750000e+01 1.823000e+02 2.242000e+03 1.875553e-02
4.000000e+01 1.883000e+02 2.255000e+03 1.969721e-02
4.500000e+01 1.997000e+02 2.276000e+03 2.146579e-02
5.000000e+01 2.106000e+02 2.291000e+03 2.337627e-02
5.500000e+01 2.208000e+02 2.301000e+03 2.514538e-02
6.000000e+01 2.307000e+02 2.307000e+03 2.691487e-02
6.500000e+01 2.401000e+02 2.311000e+03 2.870505e-02
7.000000e+01 2.491000e+02 2.312000e+03 3.047491e-02
8.000000e+01 2.663000e+02 2.309000e+03 3.410997e-02
9.000000e+01 2.825000e+02 2.300000e+03 3.765116e-02
1.000000e+02 2.978000e+02 2.288000e+03 4.119284e-02
1.100000e+02 3.123000e+02 2.272000e+03 4.475422e-02
1.200000e+02 3.262000e+02 2.255000e+03 4.827204e-02
1.300000e+02 3.395000e+02 2.237000e+03 5.190973e-02
1.400000e+02 3.523000e+02 2.217000e+03 5.543365e-02
1.500000e+02 3.647000e+02 2.198000e+03 5.904820e-02
1.600000e+02 3.805000e+02 2.177000e+03 6.268684e-02
1.700000e+02 4.068000e+02 2.157000e+03 6.630219e-02
1.800000e+02 4.286000e+02 2.136000e+03 6.994119e-02
2.000000e+02 4.629000e+02 2.095000e+03 7.717338e-02
2.250000e+02 4.950000e+02 2.044000e+03 8.637482e-02
2.500000e+02 5.209000e+02 1.996000e+03 9.557264e-02
2.750000e+02 5.440000e+02 1.949000e+03 1.048498e-01
3.000000e+02 5.659000e+02 1.904000e+03 1.142985e-01
3.250000e+02 5.874000e+02 1.861000e+03 1.238836e-01
3.500000e+02 6.089000e+02 1.820000e+03 1.334525e-01
3.750000e+02 6.305000e+02 1.781000e+03 1.432105e-01
4.000000e+02 6.521000e+02 1.744000e+03 1.529530e-01
4.500000e+02 6.958000e+02 1.674000e+03 1.727675e-01
5.000000e+02 7.395000e+02 1.611000e+03 1.927578e-01
5.500000e+02 7.830000e+02 1.552000e+03 2.129245e-01
6.000000e+02 8.259000e+02 1.499000e+03 2.332684e-01
6.500000e+02 8.680000e+02 1.450000e+03 2.537122e-01
7.000000e+02 9.094000e+02 1.404000e+03 2.741398e-01
8.000000e+02 9.895000e+02 1.322000e+03 3.153564e-01
9.000000e+02 1.066000e+03 1.251000e+03 3.565129e-01
1.000000e+03 1.140000e+03 1.188000e+03 3.976255e-01
1.100000e+03 1.211000e+03 1.132000e+03 4.384707e-01
1.200000e+03 1.279000e+03 1.082000e+03 4.791934e-01
1.300000e+03 1.346000e+03 1.037000e+03 5.196667e-01
1.400000e+03 1.410000e+03 9.965000e+02 5.596945e-01
1.500000e+03 1.474000e+03 9.592000e+02 5.993766e-01
1.600000e+03 1.536000e+03 9.251000e+02 6.386450e-01
1.700000e+03 1.597000e+03 8.937000e+02 6.775671e-01
1.800000e+03 1.657000e+03 8.647000e+02 7.159773e-01
2.000000e+03 1.776000e+03 8.127000e+02 7.915401e-01
2.250000e+03 1.921000e+03 7.572000e+02 8.833719e-01
2.500000e+03 2.065000e+03 7.097000e+02 9.721690e-01
2.750000e+03 2.206000e+03 6.686000e+02 1.057663e+00
3.000000e+03 2.346000e+03 6.327000e+02 1.138194e+00
3.250000e+03 2.484000e+03 6.009000e+02 1.218606e+00
3.500000e+03 2.622000e+03 5.725000e+02 1.298917e+00
3.750000e+03 2.758000e+03 5.471000e+02 1.369295e+00
4.000000e+03 2.893000e+03 5.241000e+02 1.449443e+00
4.500000e+03 3.159000e+03 4.841000e+02 1.589872e+00
5.000000e+03 3.420000e+03 4.505000e+02 1.720194e+00
5.500000e+03 3.676000e+03 4.217000e+02 1.840432e+00
6.000000e+03 3.925000e+03 3.968000e+02 1.950651e+00
6.500000e+03 4.169000e+03 3.750000e+02 2.070630e+00
7.000000e+03 4.406000e+03 3.558000e+02 2.170729e+00
8.000000e+03 4.862000e+03 3.232000e+02 2.370780e+00
9.000000e+03 5.293000e+03 2.966000e+02 2.550763e+00
1.000000e+04 5.701000e+03 2.745000e+02 2.720671e+00
1.100000e+04 6.085000e+03 2.558000e+02 2.880526e+00
1.200000e+04 6.449000e+03 2.397000e+02 3.040304e+00
1.300000e+04 6.792000e+03 2.257000e+02 3.180146e+00
1.400000e+04 7.116000e+03 2.134000e+02 3.319949e+00
1.500000e+04 7.422000e+03 2.024000e+02 3.449768e+00
1.600000e+04 7.712000e+03 1.927000e+02 3.579555e+00
1.700000e+04 7.986000e+03 1.839000e+02 3.699379e+00
1.800000e+04 8.247000e+03 1.760000e+02 3.819176e+00
2.000000e+04 8.731000e+03 1.622000e+02 4.048861e+00
2.250000e+04 9.275000e+03 1.480000e+02 4.318503e+00
2.500000e+04 9.762000e+03 1.362000e+02 4.578143e+00
2.750000e+04 1.020000e+04 1.264000e+02 4.827787e+00
3.000000e+04 1.061000e+04 1.179000e+02 5.057483e+00
3.250000e+04 1.098000e+04 1.106000e+02 5.287162e+00
3.500000e+04 1.132000e+04 1.043000e+02 5.506870e+00
3.750000e+04 1.164000e+04 9.865000e+01 5.726571e+00
4.000000e+04 1.193000e+04 9.365000e+01 5.936300e+00
4.500000e+04 1.247000e+04 8.514000e+01 6.345915e+00
5.000000e+04 1.294000e+04 7.815000e+01 6.735562e+00
5.500000e+04 1.335000e+04 7.230000e+01 7.105241e+00
6.000000e+04 1.371000e+04 6.733000e+01 7.474921e+00
6.500000e+04 1.404000e+04 6.304000e+01 7.834621e+00
7.000000e+04 1.433000e+04 5.930000e+01 8.184351e+00
8.000000e+04 1.482000e+04 5.310000e+01 8.864107e+00
9.000000e+04 1.521000e+04 4.815000e+01 9.533855e+00
1.000000e+05 1.553000e+04 4.409000e+01 1.017363e+01
