# Energy(keV)    dEe/dx(keV/micro_m)  dEn/dx(keV/micro_m)  x(micro_m)
1.000000e+01 1.379000e+02 1.114000e+03 9.185859e-03
1.100000e+01 1.446000e+02 1.126000e+03 9.820896e-03
1.200000e+01 1.510000e+02 1.136000e+03 1.048284e-02
1.300000e+01 1.572000e+02 1.144000e+03 1.114495e-02
1.400000e+01 1.631000e+02 1.151000e+03 1.181567e-02
1.500000e+01 1.689000e+02 1.157000e+03 1.247758e-02
1.600000e+01 1.744000e+02 1.161000e+03 1.311335e-02
1.700000e+01 1.798000e+02 1.165000e+03 1.374082e-02
1.800000e+01 1.850000e+02 1.168000e+03 1.437707e-02
2.000000e+01 1.950000e+02 1.171000e+03 1.558525e-02
2.250000e+01 2.068000e+02 1.173000e+03 1.718982e-02
2.500000e+01 2.180000e+02 1.172000e+03 1.872912e-02
2.750000e+01 2.286000e+02 1.169000e+03 2.030123e-02
3.000000e+01 2.388000e+02 1.165000e+03 2.181605e-02
3.250000e+01 2.486000e+02 1.160000e+03 2.344653e-02
3.500000e+01 2.579000e+02 1.154000e+03 2.492890e-02
3.750000e+01 2.670000e+02 1.148000e+03 2.641174e-02
4.000000e+01 2.758000e+02 1.141000e+03 2.801874e-02
4.500000e+01 2.925000e+02 1.126000e+03 3.113294e-02
5.000000e+01 3.083000e+02 1.110000e+03 3.419284e-02
5.500000e+01 3.234000e+02 1.094000e+03 3.728498e-02
6.000000e+01 3.377000e+02 1.078000e+03 4.043921e-02
6.500000e+01 3.515000e+02 1.062000e+03 4.353240e-02
7.000000e+01 3.648000e+02 1.046000e+03 4.671038e-02
8.000000e+01 3.899000e+02 1.015000e+03 5.305365e-02
9.000000e+01 4.121000e+02 9.859000e+02 5.946226e-02
1.000000e+02 4.361000e+02 9.581000e+02 6.587298e-02
1.100000e+02 4.607000e+02 9.318000e+02 7.237880e-02
1.200000e+02 4.851000e+02 9.070000e+02 7.876427e-02
1.300000e+02 5.090000e+02 8.837000e+02 8.533891e-02
1.400000e+02 5.324000e+02 8.616000e+02 9.182124e-02
1.500000e+02 5.551000e+02 8.408000e+02 9.827767e-02
1.600000e+02 5.770000e+02 8.211000e+02 1.048363e-01
1.700000e+02 5.981000e+02 8.024000e+02 1.112953e-01
1.800000e+02 6.185000e+02 7.847000e+02 1.178237e-01
2.000000e+02 6.571000e+02 7.519000e+02 1.308908e-01
2.250000e+02 7.018000e+02 7.151000e+02 1.470298e-01
2.500000e+02 7.434000e+02 6.824000e+02 1.632212e-01
2.750000e+02 7.823000e+02 6.530000e+02 1.793954e-01
3.000000e+02 8.193000e+02 6.265000e+02 1.954378e-01
3.250000e+02 8.547000e+02 6.023000e+02 2.113486e-01
3.500000e+02 8.888000e+02 5.803000e+02 2.272422e-01
3.750000e+02 9.220000e+02 5.601000e+02 2.430045e-01
4.000000e+02 9.544000e+02 5.415000e+02 2.587285e-01
4.500000e+02 1.017000e+03 5.083000e+02 2.896749e-01
5.000000e+02 1.079000e+03 4.796000e+02 3.200559e-01
5.500000e+02 1.139000e+03 4.544000e+02 3.499535e-01
6.000000e+02 1.198000e+03 4.321000e+02 3.791932e-01
6.500000e+02 1.257000e+03 4.122000e+02 4.077937e-01
7.000000e+02 1.316000e+03 3.943000e+02 4.358499e-01
8.000000e+02 1.431000e+03 3.635000e+02 4.900768e-01
9.000000e+02 1.544000e+03 3.377000e+02 5.419836e-01
1.000000e+03 1.656000e+03 3.158000e+02 5.916836e-01
1.100000e+03 1.766000e+03 2.969000e+02 6.392063e-01
1.200000e+03 1.874000e+03 2.804000e+02 6.847605e-01
1.300000e+03 1.980000e+03 2.659000e+02 7.284575e-01
1.400000e+03 2.084000e+03 2.530000e+02 7.706187e-01
1.500000e+03 2.187000e+03 2.415000e+02 8.111434e-01
1.600000e+03 2.287000e+03 2.310000e+02 8.502417e-01
1.700000e+03 2.386000e+03 2.216000e+02 8.881077e-01
1.800000e+03 2.482000e+03 2.130000e+02 9.246689e-01
2.000000e+03 2.670000e+03 1.978000e+02 9.946315e-01
2.250000e+03 2.894000e+03 1.820000e+02 1.076265e+00
2.500000e+03 3.108000e+03 1.688000e+02 1.156200e+00
2.750000e+03 3.313000e+03 1.575000e+02 1.226171e+00
3.000000e+03 3.507000e+03 1.478000e+02 1.296080e+00
3.250000e+03 3.694000e+03 1.394000e+02 1.356037e+00
3.500000e+03 3.872000e+03 1.319000e+02 1.425836e+00
3.750000e+03 4.043000e+03 1.253000e+02 1.485718e+00
4.000000e+03 4.207000e+03 1.194000e+02 1.545567e+00
4.500000e+03 4.515000e+03 1.092000e+02 1.655345e+00
5.000000e+03 4.799000e+03 1.008000e+02 1.755146e+00
5.500000e+03 5.062000e+03 9.373000e+01 1.854902e+00
6.000000e+03 5.306000e+03 8.765000e+01 1.944697e+00
6.500000e+03 5.531000e+03 8.238000e+01 2.034468e+00
7.000000e+03 5.740000e+03 7.776000e+01 2.124230e+00
8.000000e+03 6.114000e+03 7.003000e+01 2.283911e+00
9.000000e+03 6.437000e+03 6.382000e+01 2.443553e+00
1.000000e+04 6.717000e+03 5.870000e+01 2.593235e+00
1.100000e+04 6.962000e+03 5.440000e+01 2.742903e+00
1.200000e+04 7.176000e+03 5.073000e+01 2.882623e+00
1.300000e+04 7.364000e+03 4.757000e+01 3.012381e+00
1.400000e+04 7.531000e+03 4.480000e+01 3.142150e+00
1.500000e+04 7.679000e+03 4.237000e+01 3.271910e+00
1.600000e+04 7.812000e+03 4.020000e+01 3.401679e+00
1.700000e+04 7.930000e+03 3.827000e+01 3.531455e+00
1.800000e+04 8.036000e+03 3.652000e+01 3.651274e+00
2.000000e+04 8.218000e+03 3.350000e+01 3.900963e+00
2.250000e+04 8.397000e+03 3.040000e+01 4.200668e+00
2.500000e+04 8.534000e+03 2.787000e+01 4.490405e+00
2.750000e+04 8.638000e+03 2.575000e+01 4.780165e+00
3.000000e+04 8.717000e+03 2.395000e+01 5.069925e+00
3.250000e+04 8.774000e+03 2.240000e+01 5.349727e+00
3.500000e+04 8.815000e+03 2.105000e+01 5.639526e+00
3.750000e+04 8.842000e+03 1.987000e+01 5.919349e+00
4.000000e+04 8.857000e+03 1.882000e+01 6.199185e+00
4.500000e+04 8.860000e+03 1.704000e+01 6.759124e+00
5.000000e+04 8.835000e+03 1.559000e+01 7.329050e+00
5.500000e+04 8.790000e+03 1.438000e+01 7.888995e+00
6.000000e+04 8.731000e+03 1.335000e+01 8.458945e+00
6.500000e+04 8.661000e+03 1.247000e+01 9.038890e+00
7.000000e+04 8.583000e+03 1.171000e+01 9.608857e+00
8.000000e+04 8.414000e+03 1.044000e+01 1.078942e+01
9.000000e+04 8.296000e+03 9.440000e+00 1.197992e+01
1.000000e+05 8.092000e+03 8.622000e+00 1.320034e+01
