# Energy(keV)    dEe/dx(keV/micro_m)  dEn/dx(keV/micro_m)  x(micro_m)
1.000000e+01 9.457000e+01 2.072000e+03 7.481310e-03
1.100000e+01 9.918000e+01 2.134000e+03 7.884161e-03
1.200000e+01 1.036000e+02 2.191000e+03 8.280700e-03
1.300000e+01 1.078000e+02 2.244000e+03 8.610459e-03
1.400000e+01 1.119000e+02 2.292000e+03 9.034379e-03
1.500000e+01 1.158000e+02 2.337000e+03 9.437690e-03
1.600000e+01 1.196000e+02 2.379000e+03 9.767292e-03
1.700000e+01 1.233000e+02 2.418000e+03 1.009703e-02
1.800000e+01 1.269000e+02 2.454000e+03 1.050048e-02
2.000000e+01 1.337000e+02 2.521000e+03 1.122764e-02
2.250000e+01 1.419000e+02 2.594000e+03 1.205529e-02
2.500000e+01 1.495000e+02 2.657000e+03 1.290310e-02
2.750000e+01 1.568000e+02 2.714000e+03 1.361102e-02
3.000000e+01 1.638000e+02 2.764000e+03 1.445891e-02
3.250000e+01 1.705000e+02 2.808000e+03 1.519210e-02
3.500000e+01 1.769000e+02 2.848000e+03 1.599562e-02
3.750000e+01 1.831000e+02 2.885000e+03 1.674843e-02
4.000000e+01 1.891000e+02 2.918000e+03 1.748170e-02
4.500000e+01 2.006000e+02 2.975000e+03 1.894334e-02
5.000000e+01 2.115000e+02 3.023000e+03 2.038578e-02
5.500000e+01 2.218000e+02 3.063000e+03 2.182407e-02
6.000000e+01 2.316000e+02 3.097000e+03 2.317175e-02
6.500000e+01 2.411000e+02 3.126000e+03 2.451958e-02
7.000000e+01 2.502000e+02 3.150000e+03 2.598172e-02
8.000000e+01 2.675000e+02 3.189000e+03 2.865484e-02
9.000000e+01 2.837000e+02 3.216000e+03 3.134709e-02
1.000000e+02 2.991000e+02 3.235000e+03 3.394775e-02
1.100000e+02 3.136000e+02 3.248000e+03 3.662212e-02
1.200000e+02 3.276000e+02 3.256000e+03 3.920102e-02
1.300000e+02 3.410000e+02 3.259000e+03 4.178014e-02
1.400000e+02 3.538000e+02 3.260000e+03 4.433791e-02
1.500000e+02 3.663000e+02 3.257000e+03 4.693506e-02
1.600000e+02 3.783000e+02 3.252000e+03 4.951464e-02
1.700000e+02 3.899000e+02 3.246000e+03 5.207696e-02
1.800000e+02 4.012000e+02 3.238000e+03 5.465684e-02
2.000000e+02 4.229000e+02 3.218000e+03 5.989232e-02
2.250000e+02 4.486000e+02 3.188000e+03 6.628431e-02
2.500000e+02 4.813000e+02 3.155000e+03 7.283262e-02
2.750000e+02 5.087000e+02 3.119000e+03 7.932200e-02
3.000000e+02 5.322000e+02 3.083000e+03 8.577535e-02
3.250000e+02 5.538000e+02 3.045000e+03 9.234230e-02
3.500000e+02 5.745000e+02 3.007000e+03 9.891304e-02
3.750000e+02 5.950000e+02 2.970000e+03 1.055615e-01
4.000000e+02 6.155000e+02 2.932000e+03 1.122265e-01
4.500000e+02 6.569000e+02 2.859000e+03 1.257198e-01
5.000000e+02 6.986000e+02 2.789000e+03 1.392303e-01
5.500000e+02 7.402000e+02 2.721000e+03 1.529207e-01
6.000000e+02 7.813000e+02 2.657000e+03 1.668037e-01
6.500000e+02 8.215000e+02 2.596000e+03 1.806910e-01
7.000000e+02 8.608000e+02 2.537000e+03 1.946736e-01
8.000000e+02 9.358000e+02 2.428000e+03 2.230017e-01
9.000000e+02 1.006000e+03 2.330000e+03 2.516235e-01
1.000000e+03 1.072000e+03 2.240000e+03 2.804102e-01
1.100000e+03 1.134000e+03 2.157000e+03 3.095770e-01
1.200000e+03 1.192000e+03 2.082000e+03 3.388428e-01
1.300000e+03 1.248000e+03 2.012000e+03 3.682932e-01
1.400000e+03 1.301000e+03 1.948000e+03 3.979109e-01
1.500000e+03 1.352000e+03 1.888000e+03 4.276297e-01
1.600000e+03 1.401000e+03 1.833000e+03 4.573074e-01
1.700000e+03 1.449000e+03 1.781000e+03 4.871844e-01
1.800000e+03 1.497000e+03 1.733000e+03 5.171621e-01
2.000000e+03 1.588000e+03 1.645000e+03 5.769846e-01
2.250000e+03 1.700000e+03 1.548000e+03 6.517478e-01
2.500000e+03 1.811000e+03 1.464000e+03 7.261082e-01
2.750000e+03 1.920000e+03 1.390000e+03 7.998260e-01
3.000000e+03 2.031000e+03 1.325000e+03 8.726784e-01
3.250000e+03 2.141000e+03 1.266000e+03 9.445808e-01
3.500000e+03 2.253000e+03 1.213000e+03 1.015016e+00
3.750000e+03 2.365000e+03 1.165000e+03 1.085501e+00
4.000000e+03 2.479000e+03 1.121000e+03 1.155924e+00
4.500000e+03 2.707000e+03 1.044000e+03 1.286816e+00
5.000000e+03 2.938000e+03 9.778000e+02 1.417474e+00
5.500000e+03 3.169000e+03 9.208000e+02 1.538084e+00
6.000000e+03 3.401000e+03 8.709000e+02 1.648646e+00
6.500000e+03 3.631000e+03 8.269000e+02 1.768958e+00
7.000000e+03 3.860000e+03 7.877000e+02 1.869361e+00
8.000000e+03 4.311000e+03 7.207000e+02 2.079870e+00
9.000000e+03 4.748000e+03 6.654000e+02 2.260327e+00
1.000000e+04 5.171000e+03 6.190000e+02 2.440542e+00
1.100000e+04 5.578000e+03 5.793000e+02 2.610655e+00
1.200000e+04 5.967000e+03 5.449000e+02 2.760781e+00
1.300000e+04 6.341000e+03 5.149000e+02 2.910804e+00
1.400000e+04 6.697000e+03 4.883000e+02 3.050789e+00
1.500000e+04 7.038000e+03 4.647000e+02 3.180787e+00
1.600000e+04 7.364000e+03 4.434000e+02 3.310724e+00
1.700000e+04 7.675000e+03 4.243000e+02 3.440616e+00
1.800000e+04 7.972000e+03 4.069000e+02 3.560530e+00
2.000000e+04 8.528000e+03 3.764000e+02 3.790394e+00
2.250000e+04 9.159000e+03 3.448000e+02 4.060206e+00
2.500000e+04 9.728000e+03 3.186000e+02 4.310010e+00
2.750000e+04 1.025000e+04 2.964000e+02 4.549782e+00
3.000000e+04 1.072000e+04 2.774000e+02 4.779543e+00
3.250000e+04 1.116000e+04 2.609000e+02 5.009265e+00
3.500000e+04 1.157000e+04 2.464000e+02 5.219031e+00
3.750000e+04 1.195000e+04 2.336000e+02 5.428788e+00
4.000000e+04 1.231000e+04 2.221000e+02 5.628550e+00
4.500000e+04 1.297000e+04 2.026000e+02 6.018217e+00
5.000000e+04 1.358000e+04 1.865000e+02 6.387891e+00
5.500000e+04 1.413000e+04 1.729000e+02 6.737585e+00
6.000000e+04 1.465000e+04 1.614000e+02 7.087257e+00
6.500000e+04 1.513000e+04 1.514000e+02 7.416966e+00
7.000000e+04 1.559000e+04 1.426000e+02 7.736695e+00
8.000000e+04 1.641000e+04 1.281000e+02 8.356394e+00
9.000000e+04 1.714000e+04 1.164000e+02 8.946102e+00
1.000000e+05 1.779000e+04 1.069000e+02 9.515809e+00
