# Energy(keV)    dEe/dx(keV/micro_m)  dEn/dx(keV/micro_m)  x(micro_m)
1.000000e+01 1.275000e+02 4.113000e+02 1.681577e-02
1.100000e+01 1.337000e+02 4.075000e+02 1.825952e-02
1.200000e+01 1.397000e+02 4.034000e+02 1.974538e-02
1.300000e+01 1.454000e+02 3.992000e+02 2.119009e-02
1.400000e+01 1.509000e+02 3.949000e+02 2.263537e-02
1.500000e+01 1.562000e+02 3.905000e+02 2.420826e-02
1.600000e+01 1.613000e+02 3.862000e+02 2.562557e-02
1.700000e+01 1.662000e+02 3.818000e+02 2.707194e-02
1.800000e+01 1.711000e+02 3.775000e+02 2.864559e-02
2.000000e+01 1.803000e+02 3.691000e+02 3.159889e-02
2.250000e+01 1.913000e+02 3.590000e+02 3.533002e-02
2.500000e+01 2.016000e+02 3.493000e+02 3.907365e-02
2.750000e+01 2.114000e+02 3.402000e+02 4.286922e-02
3.000000e+01 2.208000e+02 3.315000e+02 4.666680e-02
3.250000e+01 2.299000e+02 3.233000e+02 5.046593e-02
3.500000e+01 2.385000e+02 3.155000e+02 5.423007e-02
3.750000e+01 2.469000e+02 3.082000e+02 5.803172e-02
4.000000e+01 2.710000e+02 3.012000e+02 6.176326e-02
4.500000e+01 3.098000e+02 2.883000e+02 6.896151e-02
5.000000e+01 3.327000e+02 2.766000e+02 7.601375e-02
5.500000e+01 3.465000e+02 2.660000e+02 8.301114e-02
6.000000e+01 3.554000e+02 2.563000e+02 9.007158e-02
6.500000e+01 3.618000e+02 2.474000e+02 9.713707e-02
7.000000e+01 3.671000e+02 2.392000e+02 1.043046e-01
8.000000e+01 3.772000e+02 2.246000e+02 1.188337e-01
9.000000e+01 3.887000e+02 2.119000e+02 1.334704e-01
1.000000e+02 4.024000e+02 2.008000e+02 1.482231e-01
1.100000e+02 4.182000e+02 1.910000e+02 1.628671e-01
1.200000e+02 4.357000e+02 1.823000e+02 1.774938e-01
1.300000e+02 4.546000e+02 1.745000e+02 1.918435e-01
1.400000e+02 4.745000e+02 1.674000e+02 2.060563e-01
1.500000e+02 4.949000e+02 1.609000e+02 2.199481e-01
1.600000e+02 5.158000e+02 1.550000e+02 2.336340e-01
1.700000e+02 5.369000e+02 1.496000e+02 2.470451e-01
1.800000e+02 5.581000e+02 1.446000e+02 2.601557e-01
2.000000e+02 6.001000e+02 1.357000e+02 2.855971e-01
2.250000e+02 6.512000e+02 1.262000e+02 3.159612e-01
2.500000e+02 7.003000e+02 1.181000e+02 3.448075e-01
2.750000e+02 7.472000e+02 1.112000e+02 3.724629e-01
3.000000e+02 7.919000e+02 1.051000e+02 3.990623e-01
3.250000e+02 8.344000e+02 9.968000e+01 4.246038e-01
3.500000e+02 8.750000e+02 9.489000e+01 4.491826e-01
3.750000e+02 9.138000e+02 9.060000e+01 4.730288e-01
4.000000e+02 9.510000e+02 8.673000e+01 4.960624e-01
4.500000e+02 1.021000e+03 8.001000e+01 5.403273e-01
5.000000e+02 1.087000e+03 7.437000e+01 5.823316e-01
5.500000e+02 1.149000e+03 6.956000e+01 6.224763e-01
6.000000e+02 1.208000e+03 6.540000e+01 6.608849e-01
6.500000e+02 1.265000e+03 6.176000e+01 6.977661e-01
7.000000e+02 1.320000e+03 5.855000e+01 7.333265e-01
8.000000e+02 1.426000e+03 5.313000e+01 8.009089e-01
9.000000e+02 1.527000e+03 4.872000e+01 8.643584e-01
1.000000e+03 1.624000e+03 4.505000e+01 9.241819e-01
1.100000e+03 1.719000e+03 4.195000e+01 9.809977e-01
1.200000e+03 1.810000e+03 3.928000e+01 1.036190e+00
1.300000e+03 1.900000e+03 3.696000e+01 1.086022e+00
1.400000e+03 1.986000e+03 3.493000e+01 1.135830e+00
1.500000e+03 2.070000e+03 3.313000e+01 1.185608e+00
1.600000e+03 2.151000e+03 3.152000e+01 1.225499e+00
1.700000e+03 2.230000e+03 3.008000e+01 1.275249e+00
1.800000e+03 2.306000e+03 2.877000e+01 1.315114e+00
2.000000e+03 2.449000e+03 2.650000e+01 1.394823e+00
2.250000e+03 2.613000e+03 2.416000e+01 1.494438e+00
2.500000e+03 2.759000e+03 2.223000e+01 1.584125e+00
2.750000e+03 2.889000e+03 2.061000e+01 1.673781e+00
3.000000e+03 3.004000e+03 1.923000e+01 1.753511e+00
3.250000e+03 3.104000e+03 1.803000e+01 1.833242e+00
3.500000e+03 3.192000e+03 1.699000e+01 1.912975e+00
3.750000e+03 3.267000e+03 1.607000e+01 1.992707e+00
4.000000e+03 3.332000e+03 1.525000e+01 2.062498e+00
4.500000e+03 3.434000e+03 1.386000e+01 2.212094e+00
5.000000e+03 3.507000e+03 1.271000e+01 2.351754e+00
5.500000e+03 3.555000e+03 1.176000e+01 2.491424e+00
6.000000e+03 3.586000e+03 1.094000e+01 2.631114e+00
6.500000e+03 3.604000e+03 1.024000e+01 2.770826e+00
7.000000e+03 3.611000e+03 9.634000e+00 2.910556e+00
8.000000e+03 3.604000e+03 8.622000e+00 3.180223e+00
9.000000e+03 3.579000e+03 7.815000e+00 3.459897e+00
1.000000e+04 3.543000e+03 7.154000e+00 3.739614e+00
1.100000e+04 3.502000e+03 6.604000e+00 4.019370e+00
1.200000e+04 3.459000e+03 6.137000e+00 4.309144e+00
1.300000e+04 3.414000e+03 5.736000e+00 4.598942e+00
1.400000e+04 3.370000e+03 5.387000e+00 4.898754e+00
1.500000e+04 3.326000e+03 5.080000e+00 5.188604e+00
1.600000e+04 3.283000e+03 4.809000e+00 5.488466e+00
1.700000e+04 3.242000e+03 4.567000e+00 5.798327e+00
1.800000e+04 3.202000e+03 4.350000e+00 6.108213e+00
2.000000e+04 3.126000e+03 3.975000e+00 6.738312e+00
2.250000e+04 3.039000e+03 3.594000e+00 7.548604e+00
2.500000e+04 2.959000e+03 3.283000e+00 8.378874e+00
2.750000e+04 2.885000e+03 3.024000e+00 9.239117e+00
3.000000e+04 2.817000e+03 2.805000e+00 1.010936e+01
3.250000e+04 2.753000e+03 2.618000e+00 1.100958e+01
3.500000e+04 2.692000e+03 2.455000e+00 1.192979e+01
3.750000e+04 2.635000e+03 2.312000e+00 1.286000e+01
4.000000e+04 2.594000e+03 2.186000e+00 1.382020e+01
4.500000e+04 2.496000e+03 1.973000e+00 1.578181e+01
5.000000e+04 2.399000e+03 1.800000e+00 1.782321e+01
5.500000e+04 2.312000e+03 1.656000e+00 1.995446e+01
6.000000e+04 2.231000e+03 1.535000e+00 2.215560e+01
6.500000e+04 2.156000e+03 1.431000e+00 2.442666e+01
7.000000e+04 2.085000e+03 1.341000e+00 2.678765e+01
8.000000e+04 1.956000e+03 1.192000e+00 3.172335e+01
9.000000e+04 1.840000e+03 1.075000e+00 3.699345e+01
1.000000e+05 1.737000e+03 9.792000e-01 4.258358e+01
