# Energy(keV)    dEe/dx(keV/micro_m)  dEn/dx(keV/micro_m)  x(micro_m)
1.000000e+01 1.059000e+02 1.639000e+03 7.854935e-03
1.100000e+01 1.111000e+02 1.674000e+03 8.369588e-03
1.200000e+01 1.161000e+02 1.705000e+03 8.792611e-03
1.300000e+01 1.208000e+02 1.732000e+03 9.338629e-03
1.400000e+01 1.254000e+02 1.757000e+03 9.761660e-03
1.500000e+01 1.298000e+02 1.780000e+03 1.018479e-02
1.600000e+01 1.340000e+02 1.801000e+03 1.070047e-02
1.700000e+01 1.381000e+02 1.819000e+03 1.112385e-02
1.800000e+01 1.421000e+02 1.836000e+03 1.157713e-02
2.000000e+01 1.498000e+02 1.866000e+03 1.251639e-02
2.250000e+01 1.589000e+02 1.897000e+03 1.357829e-02
2.500000e+01 1.675000e+02 1.922000e+03 1.464036e-02
2.750000e+01 1.757000e+02 1.942000e+03 1.567354e-02
3.000000e+01 1.835000e+02 1.959000e+03 1.673589e-02
3.250000e+01 1.910000e+02 1.973000e+03 1.776992e-02
3.500000e+01 1.982000e+02 1.984000e+03 1.883242e-02
3.750000e+01 2.052000e+02 1.993000e+03 1.980152e-02
4.000000e+01 2.119000e+02 2.000000e+03 2.083603e-02
4.500000e+01 2.247000e+02 2.010000e+03 2.283988e-02
5.000000e+01 2.369000e+02 2.015000e+03 2.484391e-02
5.500000e+01 2.485000e+02 2.017000e+03 2.684809e-02
6.000000e+01 2.595000e+02 2.016000e+03 2.885238e-02
6.500000e+01 2.701000e+02 2.012000e+03 3.080909e-02
7.000000e+01 2.803000e+02 2.007000e+03 3.281372e-02
8.000000e+01 2.997000e+02 1.993000e+03 3.677635e-02
9.000000e+01 3.178000e+02 1.975000e+03 4.076579e-02
1.000000e+02 3.350000e+02 1.955000e+03 4.482432e-02
1.100000e+02 3.514000e+02 1.934000e+03 4.878893e-02
1.200000e+02 3.670000e+02 1.912000e+03 5.284875e-02
1.300000e+02 3.820000e+02 1.889000e+03 5.681417e-02
1.400000e+02 4.003000e+02 1.866000e+03 6.092594e-02
1.500000e+02 4.286000e+02 1.843000e+03 6.498723e-02
1.600000e+02 4.517000e+02 1.820000e+03 6.904875e-02
1.700000e+02 4.709000e+02 1.798000e+03 7.308632e-02
1.800000e+02 4.874000e+02 1.776000e+03 7.712970e-02
2.000000e+02 5.153000e+02 1.733000e+03 8.542119e-02
2.250000e+02 5.452000e+02 1.681000e+03 9.575401e-02
2.500000e+02 5.731000e+02 1.633000e+03 1.062750e-01
2.750000e+02 6.006000e+02 1.587000e+03 1.169164e-01
3.000000e+02 6.281000e+02 1.544000e+03 1.276151e-01
3.250000e+02 6.559000e+02 1.503000e+03 1.384289e-01
3.500000e+02 6.837000e+02 1.465000e+03 1.492269e-01
3.750000e+02 7.117000e+02 1.429000e+03 1.602356e-01
4.000000e+02 7.395000e+02 1.395000e+03 1.712073e-01
4.500000e+02 7.947000e+02 1.332000e+03 1.932681e-01
5.000000e+02 8.485000e+02 1.275000e+03 2.153888e-01
5.500000e+02 9.007000e+02 1.224000e+03 2.377074e-01
6.000000e+02 9.512000e+02 1.178000e+03 2.598778e-01
6.500000e+02 9.999000e+02 1.135000e+03 2.821299e-01
7.000000e+02 1.047000e+03 1.096000e+03 3.042544e-01
8.000000e+02 1.136000e+03 1.027000e+03 3.483806e-01
9.000000e+02 1.220000e+03 9.669000e+02 3.922226e-01
1.000000e+03 1.300000e+03 9.148000e+02 4.355879e-01
1.100000e+03 1.377000e+03 8.688000e+02 4.784125e-01
1.200000e+03 1.451000e+03 8.280000e+02 5.207477e-01
1.300000e+03 1.523000e+03 7.914000e+02 5.624617e-01
1.400000e+03 1.594000e+03 7.584000e+02 6.036220e-01
1.500000e+03 1.663000e+03 7.284000e+02 6.441449e-01
1.600000e+03 1.732000e+03 7.011000e+02 6.840453e-01
1.700000e+03 1.800000e+03 6.760000e+02 7.232803e-01
1.800000e+03 1.867000e+03 6.530000e+02 7.619075e-01
2.000000e+03 2.001000e+03 6.119000e+02 8.373205e-01
2.250000e+03 2.168000e+03 5.682000e+02 9.278531e-01
2.500000e+03 2.333000e+03 5.311000e+02 1.014449e+00
2.750000e+03 2.499000e+03 4.992000e+02 1.097366e+00
3.000000e+03 2.663000e+03 4.713000e+02 1.177688e+00
3.250000e+03 2.827000e+03 4.468000e+02 1.248022e+00
3.500000e+03 2.990000e+03 4.250000e+02 1.328126e+00
3.750000e+03 3.152000e+03 4.055000e+02 1.398285e+00
4.000000e+03 3.312000e+03 3.879000e+02 1.458508e+00
4.500000e+03 3.628000e+03 3.575000e+02 1.588671e+00
5.000000e+03 3.935000e+03 3.319000e+02 1.708773e+00
5.500000e+03 4.233000e+03 3.102000e+02 1.818826e+00
6.000000e+03 4.522000e+03 2.914000e+02 1.928780e+00
6.500000e+03 4.801000e+03 2.750000e+02 2.028725e+00
7.000000e+03 5.069000e+03 2.606000e+02 2.118707e+00
8.000000e+03 5.576000e+03 2.362000e+02 2.298560e+00
9.000000e+03 6.044000e+03 2.164000e+02 2.458410e+00
1.000000e+04 6.474000e+03 1.999000e+02 2.618149e+00
1.100000e+04 6.869000e+03 1.860000e+02 2.757962e+00
1.200000e+04 7.233000e+03 1.741000e+02 2.897720e+00
1.300000e+04 7.568000e+03 1.638000e+02 3.027500e+00
1.400000e+04 7.877000e+03 1.547000e+02 3.157246e+00
1.500000e+04 8.163000e+03 1.466000e+02 3.277040e+00
1.600000e+04 8.427000e+03 1.395000e+02 3.386854e+00
1.700000e+04 8.673000e+03 1.330000e+02 3.506615e+00
1.800000e+04 8.901000e+03 1.272000e+02 3.616419e+00
2.000000e+04 9.314000e+03 1.171000e+02 3.836066e+00
2.250000e+04 9.763000e+03 1.067000e+02 4.085728e+00
2.500000e+04 1.015000e+04 9.812000e+01 4.335363e+00
2.750000e+04 1.050000e+04 9.092000e+01 4.575029e+00
3.000000e+04 1.080000e+04 8.478000e+01 4.804726e+00
3.250000e+04 1.108000e+04 7.948000e+01 5.034415e+00
3.500000e+04 1.133000e+04 7.485000e+01 5.254140e+00
3.750000e+04 1.156000e+04 7.078000e+01 5.473867e+00
4.000000e+04 1.176000e+04 6.715000e+01 5.683626e+00
4.500000e+04 1.213000e+04 6.099000e+01 6.103295e+00
5.000000e+04 1.244000e+04 5.594000e+01 6.503009e+00
5.500000e+04 1.271000e+04 5.171000e+01 6.902722e+00
6.000000e+04 1.294000e+04 4.812000e+01 7.282478e+00
6.500000e+04 1.313000e+04 4.503000e+01 7.672225e+00
7.000000e+04 1.330000e+04 4.234000e+01 8.042007e+00
8.000000e+04 1.357000e+04 3.787000e+01 8.781910e+00
9.000000e+04 1.377000e+04 3.431000e+01 9.511801e+00
1.000000e+05 1.391000e+04 3.140000e+01 1.023169e+01
