# Energy(keV)    dEe/dx(keV/micro_m)  dEn/dx(keV/micro_m)  x(micro_m)
1.000000e+01 1.601000e+02 2.148000e+03 7.312318e-03
1.100000e+01 1.679000e+02 2.217000e+03 7.621680e-03
1.200000e+01 1.754000e+02 2.280000e+03 8.045496e-03
1.300000e+01 1.825000e+02 2.338000e+03 8.374963e-03
1.400000e+01 1.894000e+02 2.392000e+03 8.778952e-03
1.500000e+01 1.961000e+02 2.442000e+03 9.082401e-03
1.600000e+01 2.025000e+02 2.489000e+03 9.506314e-03
1.700000e+01 2.087000e+02 2.532000e+03 9.815804e-03
1.800000e+01 2.148000e+02 2.574000e+03 1.014495e-02
2.000000e+01 2.264000e+02 2.649000e+03 1.075825e-02
2.250000e+01 2.401000e+02 2.732000e+03 1.158663e-02
2.500000e+01 2.531000e+02 2.806000e+03 1.231463e-02
2.750000e+01 2.655000e+02 2.871000e+03 1.304799e-02
3.000000e+01 2.773000e+02 2.930000e+03 1.375718e-02
3.250000e+01 2.886000e+02 2.982000e+03 1.449069e-02
3.500000e+01 2.995000e+02 3.030000e+03 1.521907e-02
3.750000e+01 3.100000e+02 3.074000e+03 1.583351e-02
4.000000e+01 3.202000e+02 3.114000e+03 1.656683e-02
4.500000e+01 3.396000e+02 3.184000e+03 1.789162e-02
5.000000e+01 3.580000e+02 3.243000e+03 1.914419e-02
5.500000e+01 3.754000e+02 3.294000e+03 2.048805e-02
6.000000e+01 3.921000e+02 3.338000e+03 2.174052e-02
6.500000e+01 4.081000e+02 3.377000e+03 2.297063e-02
7.000000e+01 4.235000e+02 3.410000e+03 2.420103e-02
8.000000e+01 4.528000e+02 3.464000e+03 2.658816e-02
9.000000e+01 4.803000e+02 3.506000e+03 2.893596e-02
1.000000e+02 5.062000e+02 3.538000e+03 3.132331e-02
1.100000e+02 5.309000e+02 3.563000e+03 3.359330e-02
1.200000e+02 5.546000e+02 3.581000e+03 3.584606e-02
1.300000e+02 5.772000e+02 3.594000e+03 3.811640e-02
1.400000e+02 5.990000e+02 3.603000e+03 4.036967e-02
1.500000e+02 6.200000e+02 3.609000e+03 4.262323e-02
1.600000e+02 6.404000e+02 3.611000e+03 4.479743e-02
1.700000e+02 6.601000e+02 3.612000e+03 4.703116e-02
1.800000e+02 6.792000e+02 3.610000e+03 4.918872e-02
2.000000e+02 7.159000e+02 3.602000e+03 5.361725e-02
2.250000e+02 7.594000e+02 3.584000e+03 5.903236e-02
2.500000e+02 8.004000e+02 3.561000e+03 6.446456e-02
2.750000e+02 8.299000e+02 3.534000e+03 6.989721e-02
3.000000e+02 8.552000e+02 3.504000e+03 7.541127e-02
3.250000e+02 8.792000e+02 3.472000e+03 8.084467e-02
3.500000e+02 9.025000e+02 3.440000e+03 8.624419e-02
3.750000e+02 9.256000e+02 3.406000e+03 9.175980e-02
4.000000e+02 9.488000e+02 3.372000e+03 9.727292e-02
4.500000e+02 9.957000e+02 3.304000e+03 1.083058e-01
5.000000e+02 1.043000e+03 3.237000e+03 1.195313e-01
5.500000e+02 1.090000e+03 3.171000e+03 1.306284e-01
6.000000e+02 1.136000e+03 3.107000e+03 1.419388e-01
6.500000e+02 1.180000e+03 3.045000e+03 1.532474e-01
7.000000e+02 1.224000e+03 2.985000e+03 1.646401e-01
8.000000e+02 1.304000e+03 2.873000e+03 1.875258e-01
9.000000e+02 1.378000e+03 2.769000e+03 2.106097e-01
1.000000e+03 1.444000e+03 2.673000e+03 2.339574e-01
1.100000e+03 1.505000e+03 2.584000e+03 2.574057e-01
1.200000e+03 1.559000e+03 2.502000e+03 2.811367e-01
1.300000e+03 1.608000e+03 2.426000e+03 3.049510e-01
1.400000e+03 1.654000e+03 2.355000e+03 3.289656e-01
1.500000e+03 1.695000e+03 2.288000e+03 3.531766e-01
1.600000e+03 1.733000e+03 2.226000e+03 3.775585e-01
1.700000e+03 1.768000e+03 2.168000e+03 4.021391e-01
1.800000e+03 1.800000e+03 2.113000e+03 4.268199e-01
2.000000e+03 1.859000e+03 2.013000e+03 4.766780e-01
2.250000e+03 1.925000e+03 1.902000e+03 5.398562e-01
2.500000e+03 1.984000e+03 1.805000e+03 6.036920e-01
2.750000e+03 2.039000e+03 1.719000e+03 6.682003e-01
3.000000e+03 2.092000e+03 1.641000e+03 7.332698e-01
3.250000e+03 2.144000e+03 1.572000e+03 7.988158e-01
3.500000e+03 2.196000e+03 1.509000e+03 8.645422e-01
3.750000e+03 2.248000e+03 1.452000e+03 9.305481e-01
4.000000e+03 2.302000e+03 1.400000e+03 9.965145e-01
4.500000e+03 2.415000e+03 1.307000e+03 1.123745e+00
5.000000e+03 2.535000e+03 1.228000e+03 1.254601e+00
5.500000e+03 2.663000e+03 1.159000e+03 1.385359e+00
6.000000e+03 2.799000e+03 1.098000e+03 1.516010e+00
6.500000e+03 2.943000e+03 1.044000e+03 1.636680e+00
7.000000e+03 3.093000e+03 9.963000e+02 1.757253e+00
8.000000e+03 3.412000e+03 9.140000e+02 1.998255e+00
9.000000e+03 3.750000e+03 8.458000e+02 2.219092e+00
1.000000e+04 4.102000e+03 7.882000e+02 2.419799e+00
1.100000e+04 4.463000e+03 7.389000e+02 2.620258e+00
1.200000e+04 4.830000e+03 6.961000e+02 2.800671e+00
1.300000e+04 5.199000e+03 6.586000e+02 2.980913e+00
1.400000e+04 5.567000e+03 6.253000e+02 3.141150e+00
1.500000e+04 5.934000e+03 5.956000e+02 3.291340e+00
1.600000e+04 6.295000e+03 5.690000e+02 3.441433e+00
1.700000e+04 6.652000e+03 5.448000e+02 3.581510e+00
1.800000e+04 7.002000e+03 5.229000e+02 3.721509e+00
2.000000e+04 7.680000e+03 4.845000e+02 3.971613e+00
2.250000e+04 8.481000e+03 4.445000e+02 4.261654e+00
2.500000e+04 9.230000e+03 4.112000e+02 4.531580e+00
2.750000e+04 9.927000e+03 3.830000e+02 4.781462e+00
3.000000e+04 1.057000e+04 3.587000e+02 5.011327e+00
3.250000e+04 1.118000e+04 3.377000e+02 5.231163e+00
3.500000e+04 1.174000e+04 3.192000e+02 5.440982e+00
3.750000e+04 1.226000e+04 3.028000e+02 5.650750e+00
4.000000e+04 1.275000e+04 2.882000e+02 5.840575e+00
4.500000e+04 1.364000e+04 2.631000e+02 6.210278e+00
5.000000e+04 1.443000e+04 2.424000e+02 6.559968e+00
5.500000e+04 1.515000e+04 2.250000e+02 6.889666e+00
6.000000e+04 1.580000e+04 2.101000e+02 7.209350e+00
6.500000e+04 1.639000e+04 1.973000e+02 7.509068e+00
7.000000e+04 1.694000e+04 1.860000e+02 7.808761e+00
8.000000e+04 1.792000e+04 1.672000e+02 8.378395e+00
9.000000e+04 1.877000e+04 1.521000e+02 8.918035e+00
1.000000e+05 1.952000e+04 1.397000e+02 9.427696e+00
