# Energy(keV)    dEe/dx(keV/micro_m)  dEn/dx(keV/micro_m)  x(micro_m)
1.000000e+01 8.494000e+01 2.245000e+03 7.576939e-03
1.100000e+01 8.909000e+01 2.323000e+03 8.000625e-03
1.200000e+01 9.305000e+01 2.395000e+03 8.329466e-03
1.300000e+01 9.685000e+01 2.462000e+03 8.734415e-03
1.400000e+01 1.005000e+02 2.524000e+03 9.063112e-03
1.500000e+01 1.040000e+02 2.582000e+03 9.366963e-03
1.600000e+01 1.074000e+02 2.637000e+03 9.771898e-03
1.700000e+01 1.108000e+02 2.688000e+03 1.010050e-02
1.800000e+01 1.140000e+02 2.737000e+03 1.038605e-02
2.000000e+01 1.201000e+02 2.827000e+03 1.102452e-02
2.250000e+01 1.274000e+02 2.927000e+03 1.184778e-02
2.500000e+01 1.343000e+02 3.016000e+03 1.258134e-02
2.750000e+01 1.409000e+02 3.097000e+03 1.329135e-02
3.000000e+01 1.471000e+02 3.169000e+03 1.402498e-02
3.250000e+01 1.531000e+02 3.235000e+03 1.465776e-02
3.500000e+01 1.589000e+02 3.296000e+03 1.536815e-02
3.750000e+01 1.645000e+02 3.351000e+03 1.600594e-02
4.000000e+01 1.699000e+02 3.403000e+03 1.671646e-02
4.500000e+01 1.802000e+02 3.495000e+03 1.794659e-02
5.000000e+01 1.899000e+02 3.574000e+03 1.919922e-02
5.500000e+01 1.992000e+02 3.644000e+03 2.042964e-02
6.000000e+01 2.081000e+02 3.705000e+03 2.166033e-02
6.500000e+01 2.166000e+02 3.760000e+03 2.279517e-02
7.000000e+01 2.247000e+02 3.809000e+03 2.402624e-02
8.000000e+01 2.403000e+02 3.892000e+03 2.630019e-02
9.000000e+01 2.548000e+02 3.959000e+03 2.857026e-02
1.000000e+02 2.686000e+02 4.014000e+03 3.070651e-02
1.100000e+02 2.817000e+02 4.060000e+03 3.297711e-02
1.200000e+02 2.943000e+02 4.098000e+03 3.513446e-02
1.300000e+02 3.063000e+02 4.129000e+03 3.719543e-02
1.400000e+02 3.178000e+02 4.155000e+03 3.933306e-02
1.500000e+02 3.290000e+02 4.176000e+03 4.139420e-02
1.600000e+02 3.398000e+02 4.193000e+03 4.353240e-02
1.700000e+02 3.502000e+02 4.207000e+03 4.560998e-02
1.800000e+02 3.604000e+02 4.218000e+03 4.765176e-02
2.000000e+02 3.799000e+02 4.232000e+03 5.173886e-02
2.250000e+02 4.029000e+02 4.240000e+03 5.688110e-02
2.500000e+02 4.247000e+02 4.238000e+03 6.198879e-02
2.750000e+02 4.455000e+02 4.230000e+03 6.709709e-02
3.000000e+02 4.653000e+02 4.217000e+03 7.222423e-02
3.250000e+02 4.879000e+02 4.200000e+03 7.723613e-02
3.500000e+02 5.113000e+02 4.180000e+03 8.234543e-02
3.750000e+02 5.343000e+02 4.157000e+03 8.743712e-02
4.000000e+02 5.566000e+02 4.133000e+03 9.244982e-02
4.500000e+02 5.986000e+02 4.081000e+03 1.026552e-01
5.000000e+02 6.374000e+02 4.025000e+03 1.128763e-01
5.500000e+02 6.734000e+02 3.969000e+03 1.231633e-01
6.000000e+02 7.071000e+02 3.911000e+03 1.335488e-01
6.500000e+02 7.387000e+02 3.854000e+03 1.439352e-01
7.000000e+02 7.686000e+02 3.798000e+03 1.544198e-01
8.000000e+02 8.246000e+02 3.688000e+03 1.756163e-01
9.000000e+02 8.770000e+02 3.583000e+03 1.969796e-01
1.000000e+03 9.271000e+02 3.483000e+03 2.187199e-01
1.100000e+03 9.756000e+02 3.388000e+03 2.406871e-01
1.200000e+03 1.023000e+03 3.299000e+03 2.629202e-01
1.300000e+03 1.070000e+03 3.215000e+03 2.853356e-01
1.400000e+03 1.116000e+03 3.135000e+03 3.079620e-01
1.500000e+03 1.162000e+03 3.060000e+03 3.307729e-01
1.600000e+03 1.208000e+03 2.989000e+03 3.536833e-01
1.700000e+03 1.253000e+03 2.921000e+03 3.768876e-01
1.800000e+03 1.299000e+03 2.857000e+03 4.000806e-01
2.000000e+03 1.388000e+03 2.738000e+03 4.468897e-01
2.250000e+03 1.499000e+03 2.605000e+03 5.059067e-01
2.500000e+03 1.607000e+03 2.486000e+03 5.650733e-01
2.750000e+03 1.714000e+03 2.380000e+03 6.245012e-01
3.000000e+03 1.820000e+03 2.283000e+03 6.838116e-01
3.250000e+03 1.923000e+03 2.196000e+03 7.429788e-01
3.500000e+03 2.025000e+03 2.116000e+03 8.020038e-01
3.750000e+03 2.125000e+03 2.042000e+03 8.607148e-01
4.000000e+03 2.223000e+03 1.974000e+03 9.189888e-01
4.500000e+03 2.415000e+03 1.854000e+03 1.033630e+00
5.000000e+03 2.602000e+03 1.749000e+03 1.144486e+00
5.500000e+03 2.785000e+03 1.657000e+03 1.255221e+00
6.000000e+03 2.964000e+03 1.576000e+03 1.365851e+00
6.500000e+03 3.139000e+03 1.504000e+03 1.476390e+00
7.000000e+03 3.311000e+03 1.439000e+03 1.576949e+00
8.000000e+03 3.649000e+03 1.326000e+03 1.777939e+00
9.000000e+03 3.978000e+03 1.232000e+03 1.978640e+00
1.000000e+04 4.301000e+03 1.152000e+03 2.159296e+00
1.100000e+04 4.619000e+03 1.084000e+03 2.339765e+00
1.200000e+04 4.931000e+03 1.023000e+03 2.500227e+00
1.300000e+04 5.238000e+03 9.705000e+02 2.670482e+00
1.400000e+04 5.541000e+03 9.235000e+02 2.820774e+00
1.500000e+04 5.838000e+03 8.813000e+02 2.970972e+00
1.600000e+04 6.131000e+03 8.433000e+02 3.121081e+00
1.700000e+04 6.418000e+03 8.089000e+02 3.251259e+00
1.800000e+04 6.699000e+03 7.775000e+02 3.391306e+00
2.000000e+04 7.246000e+03 7.222000e+02 3.651476e+00
2.250000e+04 7.896000e+03 6.644000e+02 3.941693e+00
2.500000e+04 8.510000e+03 6.161000e+02 4.231688e+00
2.750000e+04 9.088000e+03 5.750000e+02 4.491689e+00
3.000000e+04 9.630000e+03 5.396000e+02 4.741621e+00
3.250000e+04 1.014000e+04 5.088000e+02 4.981518e+00
3.500000e+04 1.062000e+04 4.816000e+02 5.211388e+00
3.750000e+04 1.106000e+04 4.575000e+02 5.431248e+00
4.000000e+04 1.148000e+04 4.359000e+02 5.641113e+00
4.500000e+04 1.226000e+04 3.988000e+02 6.040949e+00
5.000000e+04 1.295000e+04 3.681000e+02 6.430703e+00
5.500000e+04 1.357000e+04 3.422000e+02 6.790489e+00
6.000000e+04 1.414000e+04 3.200000e+02 7.140242e+00
6.500000e+04 1.466000e+04 3.008000e+02 7.479986e+00
7.000000e+04 1.514000e+04 2.839000e+02 7.809728e+00
8.000000e+04 1.602000e+04 2.557000e+02 8.439475e+00
9.000000e+04 1.679000e+04 2.330000e+02 9.039195e+00
1.000000e+05 1.748000e+04 2.143000e+02 9.618900e+00
