# Energy(keV)    dEe/dx(keV/micro_m)  dEn/dx(keV/micro_m)  x(micro_m)
1.000000e+01 1.441000e+02 2.156000e+03 7.406754e-03
1.100000e+01 1.511000e+02 2.226000e+03 7.716217e-03
1.200000e+01 1.578000e+02 2.290000e+03 8.140025e-03
1.300000e+01 1.642000e+02 2.349000e+03 8.469357e-03
1.400000e+01 1.704000e+02 2.404000e+03 8.873556e-03
1.500000e+01 1.764000e+02 2.455000e+03 9.177146e-03
1.600000e+01 1.822000e+02 2.503000e+03 9.601042e-03
1.700000e+01 1.878000e+02 2.548000e+03 9.910600e-03
1.800000e+01 1.933000e+02 2.590000e+03 1.023963e-02
2.000000e+01 2.037000e+02 2.668000e+03 1.085311e-02
2.250000e+01 2.161000e+02 2.754000e+03 1.168161e-02
2.500000e+01 2.278000e+02 2.829000e+03 1.240967e-02
2.750000e+01 2.389000e+02 2.897000e+03 1.314306e-02
3.000000e+01 2.495000e+02 2.957000e+03 1.385244e-02
3.250000e+01 2.597000e+02 3.012000e+03 1.458595e-02
3.500000e+01 2.695000e+02 3.061000e+03 1.531437e-02
3.750000e+01 2.790000e+02 3.107000e+03 1.602436e-02
4.000000e+01 2.881000e+02 3.148000e+03 1.666223e-02
4.500000e+01 3.056000e+02 3.221000e+03 1.798722e-02
5.000000e+01 3.221000e+02 3.284000e+03 1.933546e-02
5.500000e+01 3.378000e+02 3.338000e+03 2.056551e-02
6.000000e+01 3.529000e+02 3.384000e+03 2.181811e-02
6.500000e+01 3.673000e+02 3.425000e+03 2.306643e-02
7.000000e+01 3.811000e+02 3.460000e+03 2.427900e-02
8.000000e+01 4.075000e+02 3.519000e+03 2.666627e-02
9.000000e+01 4.322000e+02 3.565000e+03 2.903205e-02
1.000000e+02 4.556000e+02 3.600000e+03 3.139825e-02
1.100000e+02 4.778000e+02 3.628000e+03 3.365115e-02
1.200000e+02 4.990000e+02 3.649000e+03 3.592158e-02
1.300000e+02 5.194000e+02 3.665000e+03 3.817499e-02
1.400000e+02 5.390000e+02 3.676000e+03 4.044564e-02
1.500000e+02 5.579000e+02 3.684000e+03 4.269941e-02
1.600000e+02 5.762000e+02 3.689000e+03 4.485688e-02
1.700000e+02 5.940000e+02 3.691000e+03 4.711104e-02
1.800000e+02 6.112000e+02 3.692000e+03 4.928529e-02
2.000000e+02 6.443000e+02 3.687000e+03 5.367774e-02
2.250000e+02 6.833000e+02 3.673000e+03 5.910973e-02
2.500000e+02 7.203000e+02 3.653000e+03 6.454223e-02
2.750000e+02 7.539000e+02 3.628000e+03 6.995920e-02
3.000000e+02 7.841000e+02 3.601000e+03 7.539251e-02
3.250000e+02 8.123000e+02 3.571000e+03 8.079189e-02
3.500000e+02 8.386000e+02 3.540000e+03 8.621032e-02
3.750000e+02 8.630000e+02 3.509000e+03 9.164442e-02
4.000000e+02 8.860000e+02 3.476000e+03 9.714242e-02
4.500000e+02 9.283000e+02 3.410000e+03 1.080606e-01
5.000000e+02 9.670000e+02 3.344000e+03 1.190920e-01
5.500000e+02 1.003000e+03 3.280000e+03 1.302869e-01
6.000000e+02 1.037000e+03 3.217000e+03 1.415002e-01
6.500000e+02 1.069000e+03 3.156000e+03 1.527948e-01
7.000000e+02 1.101000e+03 3.096000e+03 1.641880e-01
8.000000e+02 1.162000e+03 2.984000e+03 1.872025e-01
9.000000e+02 1.222000e+03 2.880000e+03 2.105798e-01
1.000000e+03 1.282000e+03 2.783000e+03 2.341394e-01
1.100000e+03 1.342000e+03 2.693000e+03 2.578971e-01
1.200000e+03 1.403000e+03 2.610000e+03 2.819354e-01
1.300000e+03 1.464000e+03 2.532000e+03 3.059609e-01
1.400000e+03 1.525000e+03 2.460000e+03 3.301846e-01
1.500000e+03 1.586000e+03 2.392000e+03 3.545083e-01
1.600000e+03 1.646000e+03 2.329000e+03 3.787920e-01
1.700000e+03 1.707000e+03 2.269000e+03 4.031888e-01
1.800000e+03 1.768000e+03 2.213000e+03 4.275746e-01
2.000000e+03 1.887000e+03 2.110000e+03 4.762388e-01
2.250000e+03 2.034000e+03 1.996000e+03 5.366823e-01
2.500000e+03 2.176000e+03 1.896000e+03 5.967741e-01
2.750000e+03 2.314000e+03 1.806000e+03 6.561103e-01
3.000000e+03 2.447000e+03 1.727000e+03 7.148014e-01
3.250000e+03 2.576000e+03 1.655000e+03 7.728608e-01
3.500000e+03 2.700000e+03 1.589000e+03 8.300794e-01
3.750000e+03 2.821000e+03 1.530000e+03 8.865675e-01
4.000000e+03 2.937000e+03 1.475000e+03 9.423145e-01
4.500000e+03 3.160000e+03 1.379000e+03 1.052783e+00
5.000000e+03 3.370000e+03 1.296000e+03 1.153433e+00
5.500000e+03 3.571000e+03 1.224000e+03 1.263858e+00
6.000000e+03 3.764000e+03 1.161000e+03 1.364289e+00
6.500000e+03 3.951000e+03 1.104000e+03 1.464643e+00
7.000000e+03 4.132000e+03 1.054000e+03 1.555012e+00
8.000000e+03 4.485000e+03 9.677000e+02 1.745576e+00
9.000000e+03 4.828000e+03 8.961000e+02 1.916095e+00
1.000000e+04 5.167000e+03 8.355000e+02 2.086418e+00
1.100000e+04 5.504000e+03 7.836000e+02 2.246685e+00
1.200000e+04 5.839000e+03 7.385000e+02 2.396904e+00
1.300000e+04 6.174000e+03 6.989000e+02 2.547031e+00
1.400000e+04 6.508000e+03 6.638000e+02 2.687131e+00
1.500000e+04 6.842000e+03 6.325000e+02 2.827165e+00
1.600000e+04 7.174000e+03 6.044000e+02 2.957207e+00
1.700000e+04 7.505000e+03 5.789000e+02 3.077252e+00
1.800000e+04 7.833000e+03 5.557000e+02 3.197249e+00
2.000000e+04 8.479000e+03 5.151000e+02 3.427285e+00
2.250000e+04 9.264000e+03 4.727000e+02 3.687302e+00
2.500000e+04 1.002000e+04 4.375000e+02 3.937232e+00
2.750000e+04 1.074000e+04 4.076000e+02 4.167128e+00
3.000000e+04 1.142000e+04 3.819000e+02 4.386987e+00
3.250000e+04 1.206000e+04 3.596000e+02 4.586875e+00
3.500000e+04 1.266000e+04 3.400000e+02 4.786706e+00
3.750000e+04 1.323000e+04 3.226000e+02 4.976546e+00
4.000000e+04 1.377000e+04 3.071000e+02 5.156385e+00
4.500000e+04 1.476000e+04 2.805000e+02 5.496190e+00
5.000000e+04 1.563000e+04 2.585000e+02 5.815967e+00
5.500000e+04 1.642000e+04 2.400000e+02 6.125721e+00
6.000000e+04 1.712000e+04 2.241000e+02 6.415502e+00
6.500000e+04 1.776000e+04 2.104000e+02 6.695276e+00
7.000000e+04 1.833000e+04 1.985000e+02 6.975041e+00
8.000000e+04 1.934000e+04 1.785000e+02 7.494811e+00
9.000000e+04 2.019000e+04 1.624000e+02 7.994564e+00
1.000000e+05 2.091000e+04 1.492000e+02 8.474319e+00
