# Energy(keV)    dEe/dx(keV/micro_m)  dEn/dx(keV/micro_m)  x(micro_m)
1.000000e+01 5.903000e+01 1.359000e+03 9.906563e-03
1.100000e+01 6.192000e+01 1.392000e+03 1.051095e-02
1.200000e+01 6.467000e+01 1.422000e+03 1.105712e-02
1.300000e+01 6.731000e+01 1.449000e+03 1.162798e-02
1.400000e+01 6.985000e+01 1.473000e+03 1.223315e-02
1.500000e+01 7.230000e+01 1.495000e+03 1.277928e-02
1.600000e+01 7.467000e+01 1.516000e+03 1.329361e-02
1.700000e+01 7.697000e+01 1.535000e+03 1.386398e-02
1.800000e+01 7.920000e+01 1.552000e+03 1.437846e-02
2.000000e+01 8.349000e+01 1.583000e+03 1.543924e-02
2.250000e+01 8.855000e+01 1.616000e+03 1.673918e-02
2.500000e+01 9.334000e+01 1.644000e+03 1.800833e-02
2.750000e+01 9.790000e+01 1.668000e+03 1.928471e-02
3.000000e+01 1.023000e+02 1.688000e+03 2.055432e-02
3.250000e+01 1.064000e+02 1.705000e+03 2.170852e-02
3.500000e+01 1.104000e+02 1.720000e+03 2.297869e-02
3.750000e+01 1.143000e+02 1.733000e+03 2.416299e-02
4.000000e+01 1.181000e+02 1.744000e+03 2.543325e-02
4.500000e+01 1.252000e+02 1.762000e+03 2.776581e-02
5.000000e+01 1.320000e+02 1.775000e+03 3.007624e-02
5.500000e+01 1.385000e+02 1.784000e+03 3.240941e-02
6.000000e+01 1.446000e+02 1.790000e+03 3.472074e-02
6.500000e+01 1.505000e+02 1.794000e+03 3.705428e-02
7.000000e+01 1.562000e+02 1.796000e+03 3.936623e-02
8.000000e+01 1.670000e+02 1.796000e+03 4.398454e-02
9.000000e+01 1.771000e+02 1.791000e+03 4.851010e-02
1.000000e+02 1.867000e+02 1.783000e+03 5.313633e-02
1.100000e+02 1.958000e+02 1.773000e+03 5.775682e-02
1.200000e+02 2.045000e+02 1.761000e+03 6.235720e-02
1.300000e+02 2.129000e+02 1.749000e+03 6.695827e-02
1.400000e+02 2.209000e+02 1.735000e+03 7.155990e-02
1.500000e+02 2.286000e+02 1.720000e+03 7.627641e-02
1.600000e+02 2.381000e+02 1.706000e+03 8.097327e-02
1.700000e+02 2.530000e+02 1.691000e+03 8.567059e-02
1.800000e+02 2.654000e+02 1.676000e+03 9.036830e-02
2.000000e+02 2.856000e+02 1.645000e+03 9.987878e-02
2.250000e+02 3.060000e+02 1.608000e+03 1.118248e-01
2.500000e+02 3.244000e+02 1.572000e+03 1.238931e-01
2.750000e+02 3.423000e+02 1.536000e+03 1.361531e-01
3.000000e+02 3.603000e+02 1.502000e+03 1.485039e-01
3.250000e+02 3.785000e+02 1.470000e+03 1.609332e-01
3.500000e+02 3.968000e+02 1.439000e+03 1.735787e-01
3.750000e+02 4.154000e+02 1.409000e+03 1.861962e-01
4.000000e+02 4.341000e+02 1.381000e+03 1.990117e-01
4.500000e+02 4.718000e+02 1.328000e+03 2.247369e-01
5.000000e+02 5.095000e+02 1.279000e+03 2.507311e-01
5.500000e+02 5.471000e+02 1.234000e+03 2.769165e-01
6.000000e+02 5.842000e+02 1.193000e+03 3.032586e-01
6.500000e+02 6.208000e+02 1.154000e+03 3.296578e-01
7.000000e+02 6.567000e+02 1.119000e+03 3.560613e-01
8.000000e+02 7.264000e+02 1.055000e+03 4.089713e-01
9.000000e+02 7.932000e+02 9.996000e+02 4.616845e-01
1.000000e+03 8.573000e+02 9.505000e+02 5.141191e-01
1.100000e+03 9.189000e+02 9.067000e+02 5.661697e-01
1.200000e+03 9.783000e+02 8.674000e+02 6.178317e-01
1.300000e+03 1.036000e+03 8.319000e+02 6.689183e-01
1.400000e+03 1.091000e+03 7.997000e+02 7.194613e-01
1.500000e+03 1.146000e+03 7.703000e+02 7.694275e-01
1.600000e+03 1.199000e+03 7.433000e+02 8.188527e-01
1.700000e+03 1.251000e+03 7.184000e+02 8.676207e-01
1.800000e+03 1.302000e+03 6.954000e+02 9.157517e-01
2.000000e+03 1.402000e+03 6.542000e+02 1.010193e+00
2.250000e+03 1.523000e+03 6.100000e+02 1.125931e+00
2.500000e+03 1.642000e+03 5.723000e+02 1.236958e+00
2.750000e+03 1.758000e+03 5.395000e+02 1.337960e+00
3.000000e+03 1.872000e+03 5.108000e+02 1.448549e+00
3.250000e+03 1.985000e+03 4.854000e+02 1.549141e+00
3.500000e+03 2.097000e+03 4.627000e+02 1.639771e+00
3.750000e+03 2.207000e+03 4.423000e+02 1.730263e+00
4.000000e+03 2.316000e+03 4.239000e+02 1.820633e+00
4.500000e+03 2.530000e+03 3.918000e+02 1.991269e+00
5.000000e+03 2.739000e+03 3.648000e+02 2.161576e+00
5.500000e+03 2.943000e+03 3.417000e+02 2.311906e+00
6.000000e+03 3.142000e+03 3.217000e+02 2.452154e+00
6.500000e+03 3.336000e+03 3.042000e+02 2.592218e+00
7.000000e+03 3.524000e+03 2.886000e+02 2.722271e+00
8.000000e+03 3.886000e+03 2.624000e+02 2.972281e+00
9.000000e+03 4.228000e+03 2.409000e+02 3.202151e+00
1.000000e+04 4.550000e+03 2.231000e+02 3.411987e+00
1.100000e+04 4.854000e+03 2.079000e+02 3.611745e+00
1.200000e+04 5.141000e+03 1.949000e+02 3.801465e+00
1.300000e+04 5.412000e+03 1.836000e+02 3.981163e+00
1.400000e+04 5.668000e+03 1.736000e+02 4.160803e+00
1.500000e+04 5.910000e+03 1.648000e+02 4.320527e+00
1.600000e+04 6.139000e+03 1.569000e+02 4.480208e+00
1.700000e+04 6.356000e+03 1.498000e+02 4.639863e+00
1.800000e+04 6.563000e+03 1.433000e+02 4.789555e+00
2.000000e+04 6.946000e+03 1.322000e+02 5.079026e+00
2.250000e+04 7.379000e+03 1.206000e+02 5.418437e+00
2.500000e+04 7.769000e+03 1.111000e+02 5.737873e+00
2.750000e+04 8.124000e+03 1.030000e+02 6.047309e+00
3.000000e+04 8.449000e+03 9.619000e+01 6.346770e+00
3.250000e+04 8.749000e+03 9.027000e+01 6.626298e+00
3.500000e+04 9.027000e+03 8.509000e+01 6.905805e+00
3.750000e+04 9.287000e+03 8.051000e+01 7.175355e+00
4.000000e+04 9.529000e+03 7.645000e+01 7.434936e+00
4.500000e+04 9.970000e+03 6.952000e+01 7.944290e+00
5.000000e+04 1.036000e+04 6.383000e+01 8.433692e+00
5.500000e+04 1.070000e+04 5.907000e+01 8.903144e+00
6.000000e+04 1.101000e+04 5.501000e+01 9.362622e+00
6.500000e+04 1.129000e+04 5.152000e+01 9.802151e+00
7.000000e+04 1.153000e+04 4.847000e+01 1.024169e+01
8.000000e+04 1.196000e+04 4.341000e+01 1.108121e+01
9.000000e+04 1.230000e+04 3.937000e+01 1.191073e+01
1.000000e+05 1.257000e+04 3.606000e+01 1.271029e+01
1.100000e+05 1.279000e+04 3.330000e+01 1.348989e+01
1.200000e+05 1.297000e+04 3.096000e+01 1.426951e+01
1.300000e+05 1.311000e+04 2.895000e+01 1.502916e+01
1.400000e+05 1.322000e+04 2.720000e+01 1.578883e+01
1.500000e+05 1.331000e+04 2.566000e+01 1.653852e+01
1.600000e+05 1.338000e+04 2.429000e+01 1.728823e+01
1.700000e+05 1.345000e+04 2.308000e+01 1.802797e+01
1.800000e+05 1.346000e+04 2.199000e+01 1.876772e+01
2.000000e+05 1.339000e+04 2.010000e+01 2.025780e+01
2.250000e+05 1.330000e+04 1.818000e+01 2.212820e+01
2.500000e+05 1.317000e+04 1.661000e+01 2.400855e+01
2.750000e+05 1.302000e+04 1.531000e+01 2.591885e+01
3.000000e+05 1.285000e+04 1.421000e+01 2.784913e+01
3.250000e+05 1.267000e+04 1.326000e+01 2.980938e+01
3.500000e+05 1.248000e+04 1.244000e+01 3.179962e+01
3.750000e+05 1.229000e+04 1.172000e+01 3.380986e+01
4.000000e+05 1.210000e+04 1.108000e+01 3.586009e+01
4.500000e+05 1.172000e+04 1.001000e+01 4.003586e+01
5.000000e+05 1.135000e+04 9.132000e+00 4.437556e+01
5.500000e+05 1.100000e+04 8.405000e+00 4.884532e+01
6.000000e+05 1.066000e+04 7.791000e+00 5.345511e+01
6.500000e+05 1.034000e+04 7.264000e+00 5.821493e+01
7.000000e+05 1.004000e+04 6.808000e+00 6.311479e+01
8.000000e+05 9.468000e+03 6.057000e+00 7.337455e+01
9.000000e+05 8.955000e+03 5.461000e+00 8.423439e+01
1.000000e+00 8.491000e+03 4.978000e+00 9.569428e+01
