# Energy(keV)    dEe/dx(keV/micro_m)  dEn/dx(keV/micro_m)  x(micro_m)
1.000000e+01 5.043000e+01 1.721000e+03 9.606768e-03
1.100000e+01 5.289000e+01 1.779000e+03 1.005883e-02
1.200000e+01 5.524000e+01 1.833000e+03 1.057592e-02
1.300000e+01 5.749000e+01 1.883000e+03 1.099955e-02
1.400000e+01 5.967000e+01 1.929000e+03 1.151694e-02
1.500000e+01 6.176000e+01 1.972000e+03 1.194069e-02
1.600000e+01 6.378000e+01 2.013000e+03 1.236447e-02
1.700000e+01 6.575000e+01 2.051000e+03 1.278828e-02
1.800000e+01 6.765000e+01 2.087000e+03 1.319129e-02
2.000000e+01 7.131000e+01 2.153000e+03 1.403887e-02
2.250000e+01 7.564000e+01 2.226000e+03 1.507481e-02
2.500000e+01 7.973000e+01 2.292000e+03 1.601687e-02
2.750000e+01 8.362000e+01 2.350000e+03 1.698529e-02
3.000000e+01 8.734000e+01 2.403000e+03 1.790698e-02
3.250000e+01 9.091000e+01 2.451000e+03 1.884914e-02
3.500000e+01 9.434000e+01 2.495000e+03 1.969695e-02
3.750000e+01 9.765000e+01 2.535000e+03 2.059369e-02
4.000000e+01 1.009000e+02 2.572000e+03 2.144155e-02
4.500000e+01 1.070000e+02 2.638000e+03 2.311731e-02
5.000000e+01 1.128000e+02 2.694000e+03 2.476833e-02
5.500000e+01 1.183000e+02 2.744000e+03 2.644428e-02
6.000000e+01 1.235000e+02 2.787000e+03 2.798142e-02
6.500000e+01 1.286000e+02 2.825000e+03 2.953828e-02
7.000000e+01 1.334000e+02 2.859000e+03 3.111929e-02
8.000000e+01 1.426000e+02 2.916000e+03 3.411906e-02
9.000000e+01 1.513000e+02 2.962000e+03 3.711940e-02
1.000000e+02 1.595000e+02 2.999000e+03 4.012019e-02
1.100000e+02 1.672000e+02 3.029000e+03 4.302581e-02
1.200000e+02 1.747000e+02 3.053000e+03 4.593158e-02
1.300000e+02 1.818000e+02 3.072000e+03 4.871920e-02
1.400000e+02 1.887000e+02 3.088000e+03 5.160698e-02
1.500000e+02 1.953000e+02 3.100000e+03 5.439513e-02
1.600000e+02 2.017000e+02 3.110000e+03 5.730148e-02
1.700000e+02 2.079000e+02 3.117000e+03 6.007196e-02
1.800000e+02 2.139000e+02 3.122000e+03 6.288259e-02
2.000000e+02 2.255000e+02 3.128000e+03 6.842470e-02
2.250000e+02 2.392000e+02 3.127000e+03 7.535542e-02
2.500000e+02 2.521000e+02 3.120000e+03 8.236128e-02
2.750000e+02 2.644000e+02 3.108000e+03 8.927155e-02
3.000000e+02 2.951000e+02 3.093000e+03 9.624058e-02
3.250000e+02 3.215000e+02 3.076000e+03 1.031518e-01
3.500000e+02 3.414000e+02 3.057000e+03 1.101429e-01
3.750000e+02 3.572000e+02 3.036000e+03 1.170175e-01
4.000000e+02 3.705000e+02 3.015000e+03 1.240058e-01
4.500000e+02 3.933000e+02 2.969000e+03 1.379706e-01
5.000000e+02 4.145000e+02 2.923000e+03 1.520334e-01
5.500000e+02 4.356000e+02 2.876000e+03 1.662873e-01
6.000000e+02 4.572000e+02 2.829000e+03 1.806425e-01
6.500000e+02 4.795000e+02 2.783000e+03 1.951732e-01
7.000000e+02 5.026000e+02 2.738000e+03 2.097052e-01
8.000000e+02 5.508000e+02 2.652000e+03 2.392758e-01
9.000000e+02 6.010000e+02 2.570000e+03 2.691374e-01
1.000000e+03 6.522000e+02 2.493000e+03 2.993574e-01
1.100000e+03 7.036000e+02 2.420000e+03 3.298692e-01
1.200000e+03 7.547000e+02 2.352000e+03 3.604665e-01
1.300000e+03 8.052000e+02 2.289000e+03 3.913238e-01
1.400000e+03 8.546000e+02 2.229000e+03 4.223935e-01
1.500000e+03 9.029000e+02 2.172000e+03 4.534513e-01
1.600000e+03 9.500000e+02 2.119000e+03 4.846730e-01
1.700000e+03 9.958000e+02 2.069000e+03 5.159807e-01
1.800000e+03 1.040000e+03 2.021000e+03 5.472886e-01
2.000000e+03 1.126000e+03 1.933000e+03 6.101602e-01
2.250000e+03 1.226000e+03 1.835000e+03 6.888252e-01
2.500000e+03 1.321000e+03 1.749000e+03 7.674131e-01
2.750000e+03 1.410000e+03 1.671000e+03 8.459253e-01
3.000000e+03 1.495000e+03 1.601000e+03 9.240679e-01
3.250000e+03 1.576000e+03 1.537000e+03 1.001943e+00
3.500000e+03 1.655000e+03 1.480000e+03 1.079675e+00
3.750000e+03 1.731000e+03 1.427000e+03 1.160382e+00
4.000000e+03 1.806000e+03 1.378000e+03 1.231222e+00
4.500000e+03 1.951000e+03 1.292000e+03 1.382607e+00
5.000000e+03 2.093000e+03 1.217000e+03 1.533809e+00
5.500000e+03 2.233000e+03 1.152000e+03 1.674959e+00
6.000000e+03 2.373000e+03 1.094000e+03 1.815950e+00
6.500000e+03 2.511000e+03 1.043000e+03 1.956765e+00
7.000000e+03 2.650000e+03 9.968000e+02 2.097457e+00
8.000000e+03 2.927000e+03 9.175000e+02 2.358856e+00
9.000000e+03 3.205000e+03 8.514000e+02 2.600021e+00
1.000000e+04 3.481000e+03 7.954000e+02 2.840795e+00
1.100000e+04 3.756000e+03 7.471000e+02 3.061489e+00
1.200000e+04 4.027000e+03 7.051000e+02 3.272005e+00
1.300000e+04 4.295000e+03 6.682000e+02 3.482328e+00
1.400000e+04 4.558000e+03 6.354000e+02 3.672645e+00
1.500000e+04 4.815000e+03 6.060000e+02 3.862834e+00
1.600000e+04 5.067000e+03 5.795000e+02 4.033046e+00
1.700000e+04 5.312000e+03 5.556000e+02 4.203164e+00
1.800000e+04 5.551000e+03 5.338000e+02 4.373182e+00
2.000000e+04 6.008000e+03 4.954000e+02 4.683337e+00
2.250000e+04 6.543000e+03 4.554000e+02 5.053368e+00
2.500000e+04 7.037000e+03 4.219000e+02 5.393306e+00
2.750000e+04 7.492000e+03 3.935000e+02 5.723118e+00
3.000000e+04 7.913000e+03 3.691000e+02 6.022943e+00
3.250000e+04 8.303000e+03 3.478000e+02 6.312716e+00
3.500000e+04 8.664000e+03 3.291000e+02 6.602413e+00
3.750000e+04 9.001000e+03 3.125000e+02 6.872138e+00
4.000000e+04 9.316000e+03 2.976000e+02 7.131868e+00
4.500000e+04 9.890000e+03 2.722000e+02 7.631464e+00
5.000000e+04 1.041000e+04 2.511000e+02 8.111013e+00
5.500000e+04 1.087000e+04 2.333000e+02 8.570551e+00
6.000000e+04 1.130000e+04 2.181000e+02 9.010105e+00
6.500000e+04 1.171000e+04 2.049000e+02 9.429680e+00
7.000000e+04 1.208000e+04 1.933000e+02 9.849226e+00
8.000000e+04 1.277000e+04 1.740000e+02 1.063870e+01
9.000000e+04 1.339000e+04 1.585000e+02 1.138817e+01
1.000000e+05 1.396000e+04 1.457000e+02 1.210766e+01
1.100000e+05 1.449000e+04 1.350000e+02 1.280714e+01
1.200000e+05 1.498000e+04 1.259000e+02 1.347667e+01
1.300000e+05 1.543000e+04 1.180000e+02 1.412621e+01
1.400000e+05 1.586000e+04 1.111000e+02 1.475579e+01
1.500000e+05 1.626000e+04 1.050000e+02 1.537537e+01
1.600000e+05 1.664000e+04 9.964000e+01 1.597498e+01
1.700000e+05 1.699000e+04 9.482000e+01 1.657459e+01
1.800000e+05 1.732000e+04 9.047000e+01 1.714425e+01
2.000000e+05 1.793000e+04 8.296000e+01 1.827393e+01
2.250000e+05 1.860000e+04 7.527000e+01 1.963372e+01
2.500000e+05 1.918000e+04 6.897000e+01 2.095348e+01
2.750000e+05 1.968000e+04 6.371000e+01 2.223324e+01
3.000000e+05 2.019000e+04 5.924000e+01 2.348299e+01
3.250000e+05 2.052000e+04 5.540000e+01 2.470275e+01
3.500000e+05 2.076000e+04 5.206000e+01 2.591251e+01
3.750000e+05 2.100000e+04 4.913000e+01 2.711227e+01
4.000000e+05 2.121000e+04 4.652000e+01 2.829205e+01
4.500000e+05 2.154000e+04 4.212000e+01 3.062252e+01
5.000000e+05 2.177000e+04 3.852000e+01 3.292289e+01
5.500000e+05 2.192000e+04 3.552000e+01 3.521317e+01
6.000000e+05 2.201000e+04 3.298000e+01 3.746893e+01
6.500000e+05 2.205000e+04 3.080000e+01 3.973862e+01
7.000000e+05 2.205000e+04 2.891000e+01 4.199834e+01
8.000000e+05 2.195000e+04 2.578000e+01 4.653785e+01
9.000000e+05 2.177000e+04 2.329000e+01 5.110743e+01
1.000000e+00 2.153000e+04 2.127000e+01 5.571707e+01
