# Energy(keV)    dEe/dx(keV/micro_m)  dEn/dx(keV/micro_m)  x(micro_m)
1.000000e+01 5.596000e+01 1.690000e+03 9.563472e-03
1.100000e+01 5.869000e+01 1.746000e+03 1.008018e-02
1.200000e+01 6.130000e+01 1.797000e+03 1.059717e-02
1.300000e+01 6.381000e+01 1.844000e+03 1.102089e-02
1.400000e+01 6.622000e+01 1.888000e+03 1.151694e-02
1.500000e+01 6.854000e+01 1.929000e+03 1.194069e-02
1.600000e+01 7.079000e+01 1.968000e+03 1.236447e-02
1.700000e+01 7.297000e+01 2.004000e+03 1.281601e-02
1.800000e+01 7.508000e+01 2.038000e+03 1.323971e-02
2.000000e+01 7.914000e+01 2.100000e+03 1.415380e-02
2.250000e+01 8.394000e+01 2.169000e+03 1.510166e-02
2.500000e+01 8.848000e+01 2.231000e+03 1.613753e-02
2.750000e+01 9.280000e+01 2.285000e+03 1.707952e-02
3.000000e+01 9.693000e+01 2.335000e+03 1.802165e-02
3.250000e+01 1.009000e+02 2.379000e+03 1.896391e-02
3.500000e+01 1.047000e+02 2.420000e+03 1.988592e-02
3.750000e+01 1.084000e+02 2.457000e+03 2.073379e-02
4.000000e+01 1.119000e+02 2.491000e+03 2.167625e-02
4.500000e+01 1.187000e+02 2.551000e+03 2.335187e-02
5.000000e+01 1.251000e+02 2.602000e+03 2.502758e-02
5.500000e+01 1.312000e+02 2.647000e+03 2.667846e-02
6.000000e+01 1.371000e+02 2.686000e+03 2.835436e-02
6.500000e+01 1.427000e+02 2.720000e+03 3.000583e-02
7.000000e+01 1.481000e+02 2.750000e+03 3.156739e-02
8.000000e+01 1.583000e+02 2.800000e+03 3.468112e-02
9.000000e+01 1.679000e+02 2.840000e+03 3.780000e-02
1.000000e+02 1.770000e+02 2.871000e+03 4.081924e-02
1.100000e+02 1.856000e+02 2.895000e+03 4.391515e-02
1.200000e+02 1.939000e+02 2.915000e+03 4.682062e-02
1.300000e+02 2.018000e+02 2.930000e+03 4.982178e-02
1.400000e+02 2.094000e+02 2.941000e+03 5.280473e-02
1.500000e+02 2.167000e+02 2.950000e+03 5.571077e-02
1.600000e+02 2.239000e+02 2.956000e+03 5.869020e-02
1.700000e+02 2.307000e+02 2.960000e+03 6.159651e-02
1.800000e+02 2.374000e+02 2.962000e+03 6.450287e-02
2.000000e+02 2.503000e+02 2.962000e+03 7.027574e-02
2.250000e+02 2.655000e+02 2.955000e+03 7.758982e-02
2.500000e+02 2.798000e+02 2.942000e+03 8.482629e-02
2.750000e+02 2.915000e+02 2.926000e+03 9.214185e-02
3.000000e+02 3.024000e+02 2.908000e+03 9.943696e-02
3.250000e+02 3.157000e+02 2.887000e+03 1.067538e-01
3.500000e+02 3.304000e+02 2.865000e+03 1.140710e-01
3.750000e+02 3.458000e+02 2.842000e+03 1.214643e-01
4.000000e+02 3.616000e+02 2.818000e+03 1.288582e-01
4.500000e+02 3.936000e+02 2.769000e+03 1.436511e-01
5.000000e+02 4.252000e+02 2.720000e+03 1.586550e-01
5.500000e+02 4.557000e+02 2.671000e+03 1.737368e-01
6.000000e+02 4.847000e+02 2.623000e+03 1.889007e-01
6.500000e+02 5.124000e+02 2.576000e+03 2.042753e-01
7.000000e+02 5.390000e+02 2.530000e+03 2.196160e-01
8.000000e+02 5.892000e+02 2.443000e+03 2.508394e-01
9.000000e+02 6.366000e+02 2.362000e+03 2.823201e-01
1.000000e+03 6.824000e+02 2.286000e+03 3.142901e-01
1.100000e+03 7.271000e+02 2.215000e+03 3.466344e-01
1.200000e+03 7.711000e+02 2.150000e+03 3.791765e-01
1.300000e+03 8.146000e+02 2.088000e+03 4.119960e-01
1.400000e+03 8.577000e+02 2.030000e+03 4.450763e-01
1.500000e+03 9.006000e+02 1.976000e+03 4.782743e-01
1.600000e+03 9.432000e+02 1.925000e+03 5.116364e-01
1.700000e+03 9.856000e+02 1.878000e+03 5.450989e-01
1.800000e+03 1.028000e+03 1.833000e+03 5.786147e-01
2.000000e+03 1.111000e+03 1.750000e+03 6.458661e-01
2.250000e+03 1.213000e+03 1.657000e+03 7.298208e-01
2.500000e+03 1.314000e+03 1.576000e+03 8.134725e-01
2.750000e+03 1.412000e+03 1.504000e+03 8.966284e-01
3.000000e+03 1.507000e+03 1.439000e+03 9.790123e-01
3.250000e+03 1.601000e+03 1.380000e+03 1.060036e+00
3.500000e+03 1.692000e+03 1.327000e+03 1.140876e+00
3.750000e+03 1.781000e+03 1.278000e+03 1.221647e+00
4.000000e+03 1.868000e+03 1.233000e+03 1.302325e+00
4.500000e+03 2.037000e+03 1.154000e+03 1.453752e+00
5.000000e+03 2.199000e+03 1.086000e+03 1.604930e+00
5.500000e+03 2.357000e+03 1.026000e+03 1.746021e+00
6.000000e+03 2.510000e+03 9.738000e+02 1.896765e+00
6.500000e+03 2.659000e+03 9.273000e+02 2.027632e+00
7.000000e+03 2.805000e+03 8.856000e+02 2.168214e+00
8.000000e+03 3.089000e+03 8.139000e+02 2.419501e+00
9.000000e+03 3.365000e+03 7.543000e+02 2.670345e+00
1.000000e+04 3.635000e+03 7.039000e+02 2.901048e+00
1.100000e+04 3.899000e+03 6.606000e+02 3.121562e+00
1.200000e+04 4.157000e+03 6.229000e+02 3.331966e+00
1.300000e+04 4.411000e+03 5.898000e+02 3.532255e+00
1.400000e+04 4.660000e+03 5.605000e+02 3.722471e+00
1.500000e+04 4.904000e+03 5.343000e+02 3.912574e+00
1.600000e+04 5.143000e+03 5.107000e+02 4.082718e+00
1.700000e+04 5.376000e+03 4.893000e+02 4.252770e+00
1.800000e+04 5.604000e+03 4.699000e+02 4.422744e+00
2.000000e+04 6.045000e+03 4.358000e+02 4.742746e+00
2.250000e+04 6.564000e+03 4.002000e+02 5.102764e+00
2.500000e+04 7.050000e+03 3.705000e+02 5.452594e+00
2.750000e+04 7.504000e+03 3.454000e+02 5.772412e+00
3.000000e+04 7.928000e+03 3.238000e+02 6.082158e+00
3.250000e+04 8.324000e+03 3.050000e+02 6.371896e+00
3.500000e+04 8.694000e+03 2.884000e+02 6.661573e+00
3.750000e+04 9.041000e+03 2.737000e+02 6.931276e+00
4.000000e+04 9.368000e+03 2.606000e+02 7.190992e+00
4.500000e+04 9.967000e+03 2.382000e+02 7.690554e+00
5.000000e+04 1.051000e+04 2.196000e+02 8.170075e+00
5.500000e+04 1.100000e+04 2.039000e+02 8.619627e+00
6.000000e+04 1.145000e+04 1.905000e+02 9.059157e+00
6.500000e+04 1.186000e+04 1.789000e+02 9.478712e+00
7.000000e+04 1.225000e+04 1.688000e+02 9.888271e+00
8.000000e+04 1.296000e+04 1.519000e+02 1.066774e+01
9.000000e+04 1.358000e+04 1.382000e+02 1.140721e+01
1.000000e+05 1.415000e+04 1.270000e+02 1.212667e+01
1.100000e+05 1.467000e+04 1.176000e+02 1.280619e+01
1.200000e+05 1.514000e+04 1.097000e+02 1.347570e+01
1.300000e+05 1.558000e+04 1.027000e+02 1.411526e+01
1.400000e+05 1.599000e+04 9.673000e+01 1.474483e+01
1.500000e+05 1.637000e+04 9.142000e+01 1.536442e+01
1.600000e+05 1.672000e+04 8.671000e+01 1.596403e+01
1.700000e+05 1.706000e+04 8.250000e+01 1.654367e+01
1.800000e+05 1.737000e+04 7.871000e+01 1.712332e+01
2.000000e+05 1.793000e+04 7.215000e+01 1.825301e+01
2.250000e+05 1.854000e+04 6.543000e+01 1.961283e+01
2.500000e+05 1.907000e+04 5.994000e+01 2.094261e+01
2.750000e+05 1.956000e+04 5.535000e+01 2.223239e+01
3.000000e+05 1.996000e+04 5.146000e+01 2.349216e+01
3.250000e+05 2.019000e+04 4.811000e+01 2.473194e+01
3.500000e+05 2.043000e+04 4.520000e+01 2.596172e+01
3.750000e+05 2.063000e+04 4.265000e+01 2.717151e+01
4.000000e+05 2.080000e+04 4.038000e+01 2.838131e+01
4.500000e+05 2.105000e+04 3.654000e+01 3.076186e+01
5.000000e+05 2.121000e+04 3.341000e+01 3.312229e+01
5.500000e+05 2.130000e+04 3.081000e+01 3.547263e+01
6.000000e+05 2.133000e+04 2.860000e+01 3.779841e+01
6.500000e+05 2.131000e+04 2.670000e+01 4.013811e+01
7.000000e+05 2.125000e+04 2.506000e+01 4.248783e+01
8.000000e+05 2.106000e+04 2.234000e+01 4.720736e+01
9.000000e+05 2.078000e+04 2.018000e+01 5.198695e+01
1.000000e+00 2.044000e+04 1.842000e+01 5.682661e+01
