# Energy(keV)    dEe/dx(keV/micro_m)  dEn/dx(keV/micro_m)  x(micro_m)
1.000000e+01 6.642000e+01 1.251000e+03 1.018086e-02
1.100000e+01 6.966000e+01 1.279000e+03 1.084297e-02
1.200000e+01 7.276000e+01 1.303000e+03 1.144596e-02
1.300000e+01 7.573000e+01 1.325000e+03 1.201749e-02
1.400000e+01 7.859000e+01 1.345000e+03 1.265425e-02
1.500000e+01 8.135000e+01 1.363000e+03 1.329135e-02
1.600000e+01 8.402000e+01 1.379000e+03 1.382968e-02
1.700000e+01 8.660000e+01 1.394000e+03 1.446686e-02
1.800000e+01 8.911000e+01 1.408000e+03 1.501299e-02
2.000000e+01 9.393000e+01 1.431000e+03 1.618889e-02
2.250000e+01 9.963000e+01 1.456000e+03 1.758010e-02
2.500000e+01 1.050000e+02 1.477000e+03 1.897156e-02
2.750000e+01 1.101000e+02 1.494000e+03 2.036320e-02
3.000000e+01 1.150000e+02 1.507000e+03 2.166310e-02
3.250000e+01 1.197000e+02 1.519000e+03 2.302390e-02
3.500000e+01 1.243000e+02 1.528000e+03 2.439242e-02
3.750000e+01 1.286000e+02 1.536000e+03 2.569241e-02
4.000000e+01 1.328000e+02 1.543000e+03 2.696182e-02
4.500000e+01 1.409000e+02 1.552000e+03 2.960084e-02
5.000000e+01 1.485000e+02 1.557000e+03 3.226345e-02
5.500000e+01 1.558000e+02 1.560000e+03 3.481077e-02
6.000000e+01 1.627000e+02 1.560000e+03 3.735840e-02
6.500000e+01 1.693000e+02 1.559000e+03 3.999925e-02
7.000000e+01 1.757000e+02 1.556000e+03 4.254739e-02
8.000000e+01 1.879000e+02 1.547000e+03 4.770849e-02
9.000000e+01 1.993000e+02 1.536000e+03 5.289924e-02
1.000000e+02 2.100000e+02 1.522000e+03 5.806212e-02
1.100000e+02 2.203000e+02 1.507000e+03 6.329826e-02
1.200000e+02 2.301000e+02 1.491000e+03 6.855640e-02
1.300000e+02 2.395000e+02 1.475000e+03 7.379444e-02
1.400000e+02 2.505000e+02 1.458000e+03 7.914771e-02
1.500000e+02 2.663000e+02 1.441000e+03 8.438708e-02
1.600000e+02 2.794000e+02 1.425000e+03 8.974129e-02
1.700000e+02 2.907000e+02 1.408000e+03 9.504904e-02
1.800000e+02 3.007000e+02 1.392000e+03 1.004984e-01
2.000000e+02 3.189000e+02 1.360000e+03 1.112576e-01
2.250000e+02 3.405000e+02 1.321000e+03 1.250212e-01
2.500000e+02 3.625000e+02 1.285000e+03 1.388754e-01
2.750000e+02 3.851000e+02 1.251000e+03 1.529215e-01
3.000000e+02 4.082000e+02 1.218000e+03 1.670208e-01
3.250000e+02 4.316000e+02 1.187000e+03 1.812363e-01
3.500000e+02 4.553000e+02 1.158000e+03 1.955490e-01
3.750000e+02 4.791000e+02 1.130000e+03 2.098392e-01
4.000000e+02 5.028000e+02 1.104000e+03 2.243038e-01
4.500000e+02 5.500000e+02 1.056000e+03 2.531323e-01
5.000000e+02 5.963000e+02 1.013000e+03 2.821176e-01
5.500000e+02 6.414000e+02 9.730000e+02 3.110413e-01
6.000000e+02 6.852000e+02 9.369000e+02 3.399098e-01
6.500000e+02 7.276000e+02 9.039000e+02 3.686671e-01
7.000000e+02 7.687000e+02 8.735000e+02 3.972739e-01
8.000000e+02 8.470000e+02 8.194000e+02 4.540015e-01
9.000000e+02 9.207000e+02 7.726000e+02 5.100748e-01
1.000000e+03 9.906000e+02 7.318000e+02 5.652637e-01
1.100000e+03 1.057000e+03 6.956000e+02 6.197288e-01
1.200000e+03 1.122000e+03 6.635000e+02 6.732946e-01
1.300000e+03 1.184000e+03 6.346000e+02 7.258995e-01
1.400000e+03 1.244000e+03 6.086000e+02 7.777389e-01
1.500000e+03 1.303000e+03 5.849000e+02 8.286812e-01
1.600000e+03 1.362000e+03 5.633000e+02 8.786646e-01
1.700000e+03 1.419000e+03 5.434000e+02 9.278336e-01
1.800000e+03 1.476000e+03 5.251000e+02 9.761239e-01
2.000000e+03 1.587000e+03 4.925000e+02 1.065444e+00
2.250000e+03 1.725000e+03 4.578000e+02 1.186181e+00
2.500000e+03 1.861000e+03 4.282000e+02 1.287079e+00
2.750000e+03 1.996000e+03 4.027000e+02 1.397528e+00
3.000000e+03 2.129000e+03 3.805000e+02 1.488149e+00
3.250000e+03 2.262000e+03 3.609000e+02 1.588413e+00
3.500000e+03 2.393000e+03 3.434000e+02 1.678707e+00
3.750000e+03 2.524000e+03 3.278000e+02 1.759029e+00
4.000000e+03 2.652000e+03 3.137000e+02 1.849098e+00
4.500000e+03 2.905000e+03 2.893000e+02 2.009337e+00
5.000000e+03 3.150000e+03 2.688000e+02 2.149563e+00
5.500000e+03 3.388000e+03 2.513000e+02 2.289578e+00
6.000000e+03 3.618000e+03 2.362000e+02 2.419535e+00
6.500000e+03 3.839000e+03 2.230000e+02 2.549377e+00
7.000000e+03 4.052000e+03 2.113000e+02 2.669217e+00
8.000000e+03 4.453000e+03 1.917000e+02 2.888990e+00
9.000000e+03 4.823000e+03 1.757000e+02 3.088710e+00
1.000000e+04 5.163000e+03 1.624000e+02 3.278368e+00
1.100000e+04 5.475000e+03 1.512000e+02 3.458002e+00
1.200000e+04 5.762000e+03 1.415000e+02 3.637561e+00
1.300000e+04 6.027000e+03 1.332000e+02 3.797217e+00
1.400000e+04 6.271000e+03 1.258000e+02 3.956831e+00
1.500000e+04 6.496000e+03 1.193000e+02 4.106490e+00
1.600000e+04 6.706000e+03 1.135000e+02 4.256123e+00
1.700000e+04 6.900000e+03 1.083000e+02 4.395801e+00
1.800000e+04 7.082000e+03 1.036000e+02 4.535473e+00
2.000000e+04 7.411000e+03 9.538000e+01 4.804917e+00
2.250000e+04 7.770000e+03 8.693000e+01 5.134275e+00
2.500000e+04 8.085000e+03 7.996000e+01 5.443703e+00
2.750000e+04 8.364000e+03 7.412000e+01 5.743156e+00
3.000000e+04 8.614000e+03 6.913000e+01 6.032648e+00
3.250000e+04 8.840000e+03 6.482000e+01 6.312177e+00
3.500000e+04 9.047000e+03 6.106000e+01 6.591717e+00
3.750000e+04 9.236000e+03 5.774000e+01 6.861291e+00
4.000000e+04 9.410000e+03 5.480000e+01 7.130879e+00
4.500000e+04 9.718000e+03 4.978000e+01 7.640346e+00
5.000000e+04 9.982000e+03 4.567000e+01 8.149816e+00
5.500000e+04 1.021000e+04 4.223000e+01 8.639342e+00
6.000000e+04 1.041000e+04 3.930000e+01 9.118911e+00
6.500000e+04 1.058000e+04 3.679000e+01 9.598489e+00
7.000000e+04 1.073000e+04 3.459000e+01 1.005812e+01
8.000000e+04 1.097000e+04 3.095000e+01 1.097781e+01
9.000000e+04 1.116000e+04 2.805000e+01 1.187752e+01
1.000000e+05 1.129000e+04 2.568000e+01 1.276725e+01
1.100000e+05 1.139000e+04 2.370000e+01 1.364700e+01
1.200000e+05 1.145000e+04 2.202000e+01 1.451676e+01
1.300000e+05 1.149000e+04 2.058000e+01 1.538654e+01
1.400000e+05 1.152000e+04 1.932000e+01 1.625634e+01
1.500000e+05 1.154000e+04 1.822000e+01 1.712615e+01
1.600000e+05 1.150000e+04 1.725000e+01 1.798598e+01
1.700000e+05 1.143000e+04 1.638000e+01 1.885582e+01
1.800000e+05 1.137000e+04 1.560000e+01 1.973566e+01
2.000000e+05 1.124000e+04 1.425000e+01 2.150612e+01
2.250000e+05 1.106000e+04 1.288000e+01 2.374705e+01
2.500000e+05 1.085000e+04 1.177000e+01 2.602786e+01
2.750000e+05 1.065000e+04 1.084000e+01 2.834859e+01
3.000000e+05 1.044000e+04 1.005000e+01 3.071924e+01
3.250000e+05 1.023000e+04 9.382000e+00 3.312986e+01
3.500000e+05 1.002000e+04 8.798000e+00 3.558529e+01
3.750000e+05 9.820000e+03 8.286000e+00 3.810513e+01
4.000000e+05 9.624000e+03 7.834000e+00 4.067499e+01
4.500000e+05 9.248000e+03 7.070000e+00 4.596475e+01
5.000000e+05 8.895000e+03 6.449000e+00 5.147457e+01
5.500000e+05 8.565000e+03 5.933000e+00 5.720442e+01
6.000000e+05 8.256000e+03 5.498000e+00 6.314431e+01
6.500000e+05 7.968000e+03 5.125000e+00 6.930422e+01
7.000000e+05 7.697000e+03 4.802000e+00 7.569416e+01
8.000000e+05 7.206000e+03 4.270000e+00 8.911408e+01
9.000000e+05 6.771000e+03 3.848000e+00 1.034241e+02
1.000000e+00 6.385000e+03 3.506000e+00 1.186341e+02
