# Energy(keV)    dEe/dx(keV/micro_m)  dEn/dx(keV/micro_m)  x(micro_m)
1.000000e+01 1.004000e+02 1.669000e+03 9.326307e-03
1.100000e+01 1.053000e+02 1.723000e+03 9.843272e-03
1.200000e+01 1.099000e+02 1.772000e+03 1.026694e-02
1.300000e+01 1.144000e+02 1.818000e+03 1.081249e-02
1.400000e+01 1.188000e+02 1.861000e+03 1.123610e-02
1.500000e+01 1.229000e+02 1.900000e+03 1.175330e-02
1.600000e+01 1.270000e+02 1.937000e+03 1.217703e-02
1.700000e+01 1.309000e+02 1.971000e+03 1.260079e-02
1.800000e+01 1.347000e+02 2.004000e+03 1.300346e-02
2.000000e+01 1.419000e+02 2.064000e+03 1.385099e-02
2.250000e+01 1.505000e+02 2.130000e+03 1.479257e-02
2.500000e+01 1.587000e+02 2.188000e+03 1.582846e-02
2.750000e+01 1.664000e+02 2.240000e+03 1.679702e-02
3.000000e+01 1.738000e+02 2.286000e+03 1.771835e-02
3.250000e+01 1.809000e+02 2.328000e+03 1.866039e-02
3.500000e+01 1.878000e+02 2.366000e+03 1.950820e-02
3.750000e+01 1.944000e+02 2.401000e+03 2.043012e-02
4.000000e+01 2.007000e+02 2.433000e+03 2.125229e-02
4.500000e+01 2.129000e+02 2.489000e+03 2.292793e-02
5.000000e+01 2.244000e+02 2.537000e+03 2.460366e-02
5.500000e+01 2.354000e+02 2.578000e+03 2.625452e-02
6.000000e+01 2.458000e+02 2.614000e+03 2.793045e-02
6.500000e+01 2.559000e+02 2.645000e+03 2.948695e-02
7.000000e+01 2.655000e+02 2.672000e+03 3.104368e-02
8.000000e+01 2.839000e+02 2.717000e+03 3.416211e-02
9.000000e+01 3.011000e+02 2.752000e+03 3.716194e-02
1.000000e+02 3.174000e+02 2.779000e+03 4.016230e-02
1.100000e+02 3.329000e+02 2.799000e+03 4.316306e-02
1.200000e+02 3.477000e+02 2.815000e+03 4.606864e-02
1.300000e+02 3.619000e+02 2.827000e+03 4.906995e-02
1.400000e+02 3.755000e+02 2.836000e+03 5.197586e-02
1.500000e+02 3.887000e+02 2.841000e+03 5.485937e-02
1.600000e+02 4.015000e+02 2.845000e+03 5.765154e-02
1.700000e+02 4.138000e+02 2.846000e+03 6.055782e-02
1.800000e+02 4.258000e+02 2.846000e+03 6.342397e-02
2.000000e+02 4.489000e+02 2.842000e+03 6.910130e-02
2.250000e+02 4.761000e+02 2.830000e+03 7.622368e-02
2.500000e+02 5.018000e+02 2.814000e+03 8.322914e-02
2.750000e+02 5.158000e+02 2.795000e+03 9.033150e-02
3.000000e+02 5.287000e+02 2.774000e+03 9.743454e-02
3.250000e+02 5.424000e+02 2.751000e+03 1.045211e-01
3.500000e+02 5.573000e+02 2.726000e+03 1.117217e-01
3.750000e+02 5.734000e+02 2.701000e+03 1.189059e-01
4.000000e+02 5.906000e+02 2.676000e+03 1.260871e-01
4.500000e+02 6.279000e+02 2.625000e+03 1.405548e-01
5.000000e+02 6.675000e+02 2.574000e+03 1.551172e-01
5.500000e+02 7.078000e+02 2.524000e+03 1.697778e-01
6.000000e+02 7.478000e+02 2.475000e+03 1.845014e-01
6.500000e+02 7.871000e+02 2.427000e+03 1.992266e-01
7.000000e+02 8.254000e+02 2.381000e+03 2.139686e-01
8.000000e+02 8.981000e+02 2.294000e+03 2.438129e-01
9.000000e+02 9.652000e+02 2.214000e+03 2.737216e-01
1.000000e+03 1.027000e+03 2.139000e+03 3.037929e-01
1.100000e+03 1.083000e+03 2.070000e+03 3.340481e-01
1.200000e+03 1.135000e+03 2.006000e+03 3.643869e-01
1.300000e+03 1.182000e+03 1.946000e+03 3.950046e-01
1.400000e+03 1.226000e+03 1.890000e+03 4.257064e-01
1.500000e+03 1.266000e+03 1.838000e+03 4.565760e-01
1.600000e+03 1.303000e+03 1.789000e+03 4.875467e-01
1.700000e+03 1.337000e+03 1.743000e+03 5.186998e-01
1.800000e+03 1.369000e+03 1.700000e+03 5.500355e-01
2.000000e+03 1.426000e+03 1.620000e+03 6.130110e-01
2.250000e+03 1.490000e+03 1.533000e+03 6.925559e-01
2.500000e+03 1.546000e+03 1.456000e+03 7.728536e-01
2.750000e+03 1.597000e+03 1.387000e+03 8.536686e-01
3.000000e+03 1.646000e+03 1.326000e+03 9.349460e-01
3.250000e+03 1.693000e+03 1.270000e+03 1.016672e+00
3.500000e+03 1.739000e+03 1.220000e+03 1.098580e+00
3.750000e+03 1.784000e+03 1.174000e+03 1.179364e+00
4.000000e+03 1.830000e+03 1.133000e+03 1.260092e+00
4.500000e+03 1.925000e+03 1.058000e+03 1.431400e+00
5.000000e+03 2.024000e+03 9.948000e+02 1.592709e+00
5.500000e+03 2.129000e+03 9.394000e+02 1.753844e+00
6.000000e+03 2.240000e+03 8.907000e+02 1.904976e+00
6.500000e+03 2.355000e+03 8.475000e+02 2.065819e+00
7.000000e+03 2.477000e+03 8.088000e+02 2.216647e+00
8.000000e+03 2.732000e+03 7.425000e+02 2.498305e+00
9.000000e+03 3.002000e+03 6.875000e+02 2.779443e+00
1.000000e+04 3.283000e+03 6.410000e+02 3.030465e+00
1.100000e+04 3.571000e+03 6.012000e+02 3.281116e+00
1.200000e+04 3.862000e+03 5.666000e+02 3.501747e+00
1.300000e+04 4.155000e+03 5.362000e+02 3.722130e+00
1.400000e+04 4.448000e+03 5.093000e+02 3.922479e+00
1.500000e+04 4.738000e+03 4.852000e+02 4.122658e+00
1.600000e+04 5.025000e+03 4.636000e+02 4.302846e+00
1.700000e+04 5.307000e+03 4.441000e+02 4.482909e+00
1.800000e+04 5.585000e+03 4.263000e+02 4.643018e+00
2.000000e+04 6.121000e+03 3.951000e+02 4.963093e+00
2.250000e+04 6.756000e+03 3.626000e+02 5.323129e+00
2.500000e+04 7.348000e+03 3.356000e+02 5.662987e+00
2.750000e+04 7.900000e+03 3.126000e+02 5.972798e+00
3.000000e+04 8.414000e+03 2.929000e+02 6.262570e+00
3.250000e+04 8.891000e+03 2.758000e+02 6.542273e+00
3.500000e+04 9.337000e+03 2.608000e+02 6.811954e+00
3.750000e+04 9.754000e+03 2.474000e+02 7.061662e+00
4.000000e+04 1.014000e+04 2.355000e+02 7.301375e+00
4.500000e+04 1.086000e+04 2.151000e+02 7.770861e+00
5.000000e+04 1.150000e+04 1.982000e+02 8.200386e+00
5.500000e+04 1.208000e+04 1.840000e+02 8.619872e+00
6.000000e+04 1.261000e+04 1.719000e+02 9.019376e+00
6.500000e+04 1.309000e+04 1.614000e+02 9.398905e+00
7.000000e+04 1.354000e+04 1.522000e+02 9.768444e+00
8.000000e+04 1.435000e+04 1.369000e+02 1.047781e+01
9.000000e+04 1.506000e+04 1.245000e+02 1.114721e+01
1.000000e+05 1.569000e+04 1.144000e+02 1.179660e+01
1.100000e+05 1.625000e+04 1.059000e+02 1.241606e+01
1.200000e+05 1.676000e+04 9.870000e+01 1.301553e+01
1.300000e+05 1.722000e+04 9.246000e+01 1.359505e+01
1.400000e+05 1.764000e+04 8.703000e+01 1.416458e+01
1.500000e+05 1.802000e+04 8.224000e+01 1.472414e+01
1.600000e+05 1.837000e+04 7.799000e+01 1.527371e+01
1.700000e+05 1.869000e+04 7.419000e+01 1.580333e+01
1.800000e+05 1.899000e+04 7.077000e+01 1.633296e+01
2.000000e+05 1.951000e+04 6.485000e+01 1.737256e+01
2.250000e+05 2.005000e+04 5.880000e+01 1.863227e+01
2.500000e+05 2.049000e+04 5.385000e+01 1.985199e+01
2.750000e+05 2.092000e+04 4.972000e+01 2.106169e+01
3.000000e+05 2.113000e+04 4.622000e+01 2.224142e+01
3.250000e+05 2.128000e+04 4.320000e+01 2.342116e+01
3.500000e+05 2.142000e+04 4.058000e+01 2.459091e+01
3.750000e+05 2.152000e+04 3.828000e+01 2.575068e+01
4.000000e+05 2.159000e+04 3.625000e+01 2.691046e+01
4.500000e+05 2.166000e+04 3.279000e+01 2.922096e+01
5.000000e+05 2.164000e+04 2.998000e+01 3.152138e+01
5.500000e+05 2.157000e+04 2.763000e+01 3.383174e+01
6.000000e+05 2.146000e+04 2.565000e+01 3.613803e+01
6.500000e+05 2.132000e+04 2.395000e+01 3.847771e+01
7.000000e+05 2.115000e+04 2.247000e+01 4.082742e+01
8.000000e+05 2.075000e+04 2.003000e+01 4.559693e+01
9.000000e+05 2.032000e+04 1.809000e+01 5.045651e+01
1.000000e+00 1.986000e+04 1.651000e+01 5.543615e+01
