# Energy(keV)    dEe/dx(keV/micro_m)  dEn/dx(keV/micro_m)  x(micro_m)
1.000000e+01 5.266000e+01 1.709000e+03 9.606768e-03
1.100000e+01 5.523000e+01 1.766000e+03 1.015234e-02
1.200000e+01 5.769000e+01 1.819000e+03 1.057592e-02
1.300000e+01 6.004000e+01 1.868000e+03 1.109324e-02
1.400000e+01 6.231000e+01 1.914000e+03 1.151694e-02
1.500000e+01 6.450000e+01 1.956000e+03 1.194069e-02
1.600000e+01 6.661000e+01 1.996000e+03 1.245833e-02
1.700000e+01 6.866000e+01 2.034000e+03 1.288216e-02
1.800000e+01 7.065000e+01 2.069000e+03 1.330601e-02
2.000000e+01 7.448000e+01 2.134000e+03 1.413294e-02
2.250000e+01 7.899000e+01 2.206000e+03 1.507481e-02
2.500000e+01 8.327000e+01 2.270000e+03 1.613753e-02
2.750000e+01 8.733000e+01 2.328000e+03 1.707952e-02
3.000000e+01 9.121000e+01 2.380000e+03 1.800139e-02
3.250000e+01 9.494000e+01 2.427000e+03 1.894360e-02
3.500000e+01 9.852000e+01 2.470000e+03 1.979141e-02
3.750000e+01 1.020000e+02 2.509000e+03 2.071376e-02
4.000000e+01 1.053000e+02 2.545000e+03 2.156154e-02
4.500000e+01 1.117000e+02 2.609000e+03 2.321207e-02
5.000000e+01 1.178000e+02 2.664000e+03 2.488795e-02
5.500000e+01 1.235000e+02 2.712000e+03 2.653922e-02
6.000000e+01 1.290000e+02 2.755000e+03 2.812028e-02
6.500000e+01 1.343000e+02 2.792000e+03 2.977197e-02
7.000000e+01 1.393000e+02 2.824000e+03 3.130958e-02
8.000000e+01 1.490000e+02 2.880000e+03 3.432871e-02
9.000000e+01 1.580000e+02 2.924000e+03 3.744783e-02
1.000000e+02 1.665000e+02 2.959000e+03 4.035307e-02
1.100000e+02 1.747000e+02 2.987000e+03 4.335401e-02
1.200000e+02 1.824000e+02 3.010000e+03 4.623689e-02
1.300000e+02 1.899000e+02 3.029000e+03 4.912443e-02
1.400000e+02 1.970000e+02 3.043000e+03 5.203057e-02
1.500000e+02 2.040000e+02 3.055000e+03 5.491448e-02
1.600000e+02 2.107000e+02 3.063000e+03 5.770693e-02
1.700000e+02 2.171000e+02 3.070000e+03 6.059134e-02
1.800000e+02 2.234000e+02 3.074000e+03 6.340197e-02
2.000000e+02 2.355000e+02 3.078000e+03 6.907952e-02
2.250000e+02 2.498000e+02 3.075000e+03 7.608456e-02
2.500000e+02 2.633000e+02 3.067000e+03 8.307304e-02
2.750000e+02 2.762000e+02 3.054000e+03 9.017594e-02
3.000000e+02 2.973000e+02 3.038000e+03 9.718313e-02
3.250000e+02 3.164000e+02 3.020000e+03 1.042701e-01
3.500000e+02 3.330000e+02 3.000000e+03 1.112781e-01
3.750000e+02 3.481000e+02 2.979000e+03 1.183661e-01
4.000000e+02 3.621000e+02 2.957000e+03 1.254509e-01
4.500000e+02 3.887000e+02 2.911000e+03 1.397420e-01
5.000000e+02 4.145000e+02 2.864000e+03 1.540947e-01
5.500000e+02 4.399000e+02 2.817000e+03 1.685616e-01
6.000000e+02 4.649000e+02 2.770000e+03 1.832073e-01
6.500000e+02 4.898000e+02 2.724000e+03 1.978508e-01
7.000000e+02 5.144000e+02 2.678000e+03 2.126926e-01
8.000000e+02 5.633000e+02 2.592000e+03 2.426667e-01
9.000000e+02 6.118000e+02 2.510000e+03 2.730142e-01
1.000000e+03 6.598000e+02 2.433000e+03 3.037537e-01
1.100000e+03 7.075000e+02 2.362000e+03 3.346876e-01
1.200000e+03 7.546000e+02 2.294000e+03 3.659811e-01
1.300000e+03 8.010000e+02 2.231000e+03 3.974725e-01
1.400000e+03 8.468000e+02 2.172000e+03 4.290467e-01
1.500000e+03 8.918000e+02 2.116000e+03 4.608848e-01
1.600000e+03 9.361000e+02 2.064000e+03 4.928209e-01
1.700000e+03 9.796000e+02 2.014000e+03 5.248571e-01
1.800000e+03 1.022000e+03 1.967000e+03 5.568653e-01
2.000000e+03 1.106000e+03 1.881000e+03 6.212634e-01
2.250000e+03 1.206000e+03 1.785000e+03 7.018466e-01
2.500000e+03 1.302000e+03 1.700000e+03 7.822553e-01
2.750000e+03 1.394000e+03 1.623000e+03 8.624894e-01
3.000000e+03 1.483000e+03 1.555000e+03 9.422443e-01
3.250000e+03 1.569000e+03 1.493000e+03 1.019193e+00
3.500000e+03 1.653000e+03 1.436000e+03 1.099995e+00
3.750000e+03 1.734000e+03 1.385000e+03 1.180729e+00
4.000000e+03 1.814000e+03 1.337000e+03 1.251569e+00
4.500000e+03 1.969000e+03 1.253000e+03 1.412830e+00
5.000000e+03 2.120000e+03 1.180000e+03 1.554169e+00
5.500000e+03 2.266000e+03 1.116000e+03 1.705157e+00
6.000000e+03 2.410000e+03 1.060000e+03 1.846118e+00
6.500000e+03 2.552000e+03 1.010000e+03 1.986916e+00
7.000000e+03 2.693000e+03 9.654000e+02 2.117711e+00
8.000000e+03 2.970000e+03 8.882000e+02 2.379034e+00
9.000000e+03 3.243000e+03 8.240000e+02 2.630013e+00
1.000000e+04 3.513000e+03 7.695000e+02 2.860865e+00
1.100000e+04 3.779000e+03 7.227000e+02 3.081502e+00
1.200000e+04 4.041000e+03 6.819000e+02 3.301897e+00
1.300000e+04 4.298000e+03 6.461000e+02 3.502294e+00
1.400000e+04 4.551000e+03 6.142000e+02 3.692597e+00
1.500000e+04 4.799000e+03 5.857000e+02 3.882773e+00
1.600000e+04 5.042000e+03 5.601000e+02 4.062899e+00
1.700000e+04 5.279000e+03 5.369000e+02 4.233006e+00
1.800000e+04 5.511000e+03 5.157000e+02 4.403023e+00
2.000000e+04 5.956000e+03 4.786000e+02 4.723120e+00
2.250000e+04 6.480000e+03 4.398000e+02 5.093168e+00
2.500000e+04 6.968000e+03 4.074000e+02 5.433121e+00
2.750000e+04 7.421000e+03 3.800000e+02 5.762938e+00
3.000000e+04 7.843000e+03 3.563000e+02 6.072728e+00
3.250000e+04 8.235000e+03 3.357000e+02 6.372462e+00
3.500000e+04 8.600000e+03 3.176000e+02 6.652215e+00
3.750000e+04 8.942000e+03 3.016000e+02 6.921950e+00
4.000000e+04 9.263000e+03 2.872000e+02 7.191639e+00
4.500000e+04 9.850000e+03 2.626000e+02 7.691247e+00
5.000000e+04 1.038000e+04 2.422000e+02 8.170806e+00
5.500000e+04 1.086000e+04 2.250000e+02 8.630347e+00
6.000000e+04 1.130000e+04 2.103000e+02 9.069896e+00
6.500000e+04 1.171000e+04 1.976000e+02 9.499445e+00
7.000000e+04 1.209000e+04 1.864000e+02 9.909023e+00
8.000000e+04 1.279000e+04 1.678000e+02 1.069850e+01
9.000000e+04 1.341000e+04 1.528000e+02 1.145795e+01
1.000000e+05 1.398000e+04 1.405000e+02 1.217743e+01
1.100000e+05 1.451000e+04 1.301000e+02 1.286694e+01
1.200000e+05 1.499000e+04 1.213000e+02 1.353647e+01
1.300000e+05 1.544000e+04 1.137000e+02 1.418602e+01
1.400000e+05 1.586000e+04 1.070000e+02 1.482557e+01
1.500000e+05 1.625000e+04 1.012000e+02 1.543517e+01
1.600000e+05 1.662000e+04 9.599000e+01 1.604477e+01
1.700000e+05 1.696000e+04 9.134000e+01 1.663440e+01
1.800000e+05 1.729000e+04 8.716000e+01 1.721405e+01
2.000000e+05 1.788000e+04 7.991000e+01 1.834373e+01
2.250000e+05 1.853000e+04 7.249000e+01 1.971352e+01
2.500000e+05 1.909000e+04 6.642000e+01 2.103330e+01
2.750000e+05 1.958000e+04 6.135000e+01 2.232306e+01
3.000000e+05 2.008000e+04 5.705000e+01 2.357282e+01
3.250000e+05 2.039000e+04 5.335000e+01 2.481257e+01
3.500000e+05 2.062000e+04 5.013000e+01 2.602234e+01
3.750000e+05 2.086000e+04 4.730000e+01 2.722212e+01
4.000000e+05 2.105000e+04 4.479000e+01 2.841190e+01
4.500000e+05 2.137000e+04 4.054000e+01 3.076239e+01
5.000000e+05 2.158000e+04 3.708000e+01 3.309277e+01
5.500000e+05 2.172000e+04 3.419000e+01 3.539307e+01
6.000000e+05 2.180000e+04 3.174000e+01 3.767881e+01
6.500000e+05 2.183000e+04 2.964000e+01 3.995851e+01
7.000000e+05 2.182000e+04 2.782000e+01 4.224822e+01
8.000000e+05 2.170000e+04 2.481000e+01 4.683773e+01
9.000000e+05 2.150000e+04 2.242000e+01 5.146731e+01
1.000000e+00 2.123000e+04 2.047000e+01 5.613696e+01
