# Energy(keV)    dEe/dx(keV/micro_m)  dEn/dx(keV/micro_m)  x(micro_m)
1.000000e+01 5.738000e+01 1.509000e+03 9.669540e-03
1.100000e+01 6.018000e+01 1.551000e+03 1.021567e-02
1.200000e+01 6.285000e+01 1.589000e+03 1.073080e-02
1.300000e+01 6.542000e+01 1.624000e+03 1.124633e-02
1.400000e+01 6.789000e+01 1.656000e+03 1.179237e-02
1.500000e+01 7.027000e+01 1.686000e+03 1.221556e-02
1.600000e+01 7.258000e+01 1.714000e+03 1.273146e-02
1.700000e+01 7.481000e+01 1.739000e+03 1.327742e-02
1.800000e+01 7.698000e+01 1.763000e+03 1.370073e-02
2.000000e+01 8.114000e+01 1.806000e+03 1.464036e-02
2.250000e+01 8.606000e+01 1.853000e+03 1.581803e-02
2.500000e+01 9.072000e+01 1.894000e+03 1.697321e-02
2.750000e+01 9.515000e+01 1.929000e+03 1.812871e-02
3.000000e+01 9.938000e+01 1.960000e+03 1.921328e-02
3.250000e+01 1.034000e+02 1.988000e+03 2.024722e-02
3.500000e+01 1.073000e+02 2.012000e+03 2.130962e-02
3.750000e+01 1.111000e+02 2.034000e+03 2.234413e-02
4.000000e+01 1.148000e+02 2.054000e+03 2.340662e-02
4.500000e+01 1.217000e+02 2.087000e+03 2.550412e-02
5.000000e+01 1.283000e+02 2.114000e+03 2.750818e-02
5.500000e+01 1.346000e+02 2.136000e+03 2.951237e-02
6.000000e+01 1.405000e+02 2.154000e+03 3.146871e-02
6.500000e+01 1.463000e+02 2.168000e+03 3.347327e-02
7.000000e+01 1.518000e+02 2.180000e+03 3.535732e-02
8.000000e+01 1.623000e+02 2.197000e+03 3.922563e-02
9.000000e+01 1.721000e+02 2.207000e+03 4.309455e-02
1.000000e+02 1.814000e+02 2.212000e+03 4.696392e-02
1.100000e+02 1.903000e+02 2.213000e+03 5.073904e-02
1.200000e+02 1.988000e+02 2.211000e+03 5.456391e-02
1.300000e+02 2.069000e+02 2.206000e+03 5.833952e-02
1.400000e+02 2.147000e+02 2.200000e+03 6.216567e-02
1.500000e+02 2.222000e+02 2.193000e+03 6.594157e-02
1.600000e+02 2.295000e+02 2.184000e+03 6.978789e-02
1.700000e+02 2.366000e+02 2.174000e+03 7.361535e-02
1.800000e+02 2.434000e+02 2.163000e+03 7.734817e-02
2.000000e+02 2.642000e+02 2.141000e+03 8.504799e-02
2.250000e+02 3.093000e+02 2.110000e+03 9.468691e-02
2.500000e+02 3.365000e+02 2.079000e+03 1.042317e-01
2.750000e+02 3.547000e+02 2.047000e+03 1.138547e-01
3.000000e+02 3.690000e+02 2.015000e+03 1.235924e-01
3.250000e+02 3.819000e+02 1.983000e+03 1.333860e-01
3.500000e+02 3.947000e+02 1.952000e+03 1.433169e-01
3.750000e+02 4.080000e+02 1.921000e+03 1.533268e-01
4.000000e+02 4.219000e+02 1.892000e+03 1.633327e-01
4.500000e+02 4.521000e+02 1.835000e+03 1.837357e-01
5.000000e+02 4.852000e+02 1.781000e+03 2.043339e-01
5.500000e+02 5.205000e+02 1.731000e+03 2.251057e-01
6.000000e+02 5.573000e+02 1.683000e+03 2.460727e-01
6.500000e+02 5.950000e+02 1.638000e+03 2.671177e-01
7.000000e+02 6.330000e+02 1.596000e+03 2.882410e-01
8.000000e+02 7.088000e+02 1.519000e+03 3.306676e-01
9.000000e+02 7.823000e+02 1.450000e+03 3.731398e-01
1.000000e+03 8.526000e+02 1.388000e+03 4.154526e-01
1.100000e+03 9.192000e+02 1.332000e+03 4.577160e-01
1.200000e+03 9.822000e+02 1.281000e+03 4.998187e-01
1.300000e+03 1.042000e+03 1.234000e+03 5.417799e-01
1.400000e+03 1.098000e+03 1.192000e+03 5.834852e-01
1.500000e+03 1.152000e+03 1.152000e+03 6.250678e-01
1.600000e+03 1.203000e+03 1.116000e+03 6.664128e-01
1.700000e+03 1.252000e+03 1.082000e+03 7.075206e-01
1.800000e+03 1.299000e+03 1.051000e+03 7.482942e-01
2.000000e+03 1.389000e+03 9.936000e+02 8.293919e-01
2.250000e+03 1.495000e+03 9.319000e+02 9.293355e-01
2.500000e+03 1.597000e+03 8.785000e+02 1.031939e+00
2.750000e+03 1.696000e+03 8.318000e+02 1.123014e+00
3.000000e+03 1.793000e+03 7.905000e+02 1.213950e+00
3.250000e+03 1.891000e+03 7.537000e+02 1.314550e+00
3.500000e+03 1.988000e+03 7.206000e+02 1.405231e+00
3.750000e+03 2.086000e+03 6.908000e+02 1.485961e+00
4.000000e+03 2.184000e+03 6.637000e+02 1.576430e+00
4.500000e+03 2.382000e+03 6.162000e+02 1.737492e+00
5.000000e+03 2.582000e+03 5.758000e+02 1.898208e+00
5.500000e+03 2.784000e+03 5.411000e+02 2.048811e+00
6.000000e+03 2.986000e+03 5.109000e+02 2.189312e+00
6.500000e+03 3.188000e+03 4.842000e+02 2.329611e+00
7.000000e+03 3.388000e+03 4.605000e+02 2.459871e+00
8.000000e+03 3.783000e+03 4.203000e+02 2.700367e+00
9.000000e+03 4.165000e+03 3.872000e+02 2.930527e+00
1.000000e+04 4.532000e+03 3.595000e+02 3.140588e+00
1.100000e+04 4.882000e+03 3.359000e+02 3.330617e+00
1.200000e+04 5.215000e+03 3.156000e+02 3.510575e+00
1.300000e+04 5.531000e+03 2.978000e+02 3.690383e+00
1.400000e+04 5.830000e+03 2.821000e+02 3.850260e+00
1.500000e+04 6.113000e+03 2.681000e+02 4.010062e+00
1.600000e+04 6.380000e+03 2.557000e+02 4.159873e+00
1.700000e+04 6.632000e+03 2.444000e+02 4.309628e+00
1.800000e+04 6.871000e+03 2.342000e+02 4.449418e+00
2.000000e+04 7.311000e+03 2.164000e+02 4.719037e+00
2.250000e+04 7.800000e+03 1.979000e+02 5.038583e+00
2.500000e+04 8.232000e+03 1.826000e+02 5.348084e+00
2.750000e+04 8.620000e+03 1.697000e+02 5.637613e+00
3.000000e+04 8.971000e+03 1.587000e+02 5.907199e+00
3.250000e+04 9.292000e+03 1.491000e+02 6.176748e+00
3.500000e+04 9.589000e+03 1.407000e+02 6.436314e+00
3.750000e+04 9.866000e+03 1.333000e+02 6.685922e+00
4.000000e+04 1.013000e+04 1.267000e+02 6.935509e+00
4.500000e+04 1.060000e+04 1.154000e+02 7.404934e+00
5.000000e+04 1.103000e+04 1.061000e+02 7.864368e+00
5.500000e+04 1.143000e+04 9.832000e+01 8.303842e+00
6.000000e+04 1.179000e+04 9.168000e+01 8.733335e+00
6.500000e+04 1.213000e+04 8.594000e+01 9.142881e+00
7.000000e+04 1.244000e+04 8.093000e+01 9.542453e+00
8.000000e+04 1.300000e+04 7.260000e+01 1.032194e+01
9.000000e+04 1.349000e+04 6.594000e+01 1.107146e+01
1.000000e+05 1.392000e+04 6.047000e+01 1.180099e+01
1.100000e+05 1.430000e+04 5.590000e+01 1.250057e+01
1.200000e+05 1.464000e+04 5.201000e+01 1.319017e+01
1.300000e+05 1.493000e+04 4.867000e+01 1.386979e+01
1.400000e+05 1.519000e+04 4.576000e+01 1.452944e+01
1.500000e+05 1.541000e+04 4.320000e+01 1.517912e+01
1.600000e+05 1.561000e+04 4.093000e+01 1.581881e+01
1.700000e+05 1.579000e+04 3.890000e+01 1.645851e+01
1.800000e+05 1.594000e+04 3.708000e+01 1.707824e+01
2.000000e+05 1.621000e+04 3.394000e+01 1.832815e+01
2.250000e+05 1.643000e+04 3.072000e+01 1.984826e+01
2.500000e+05 1.647000e+04 2.810000e+01 2.136833e+01
2.750000e+05 1.650000e+04 2.592000e+01 2.287838e+01
3.000000e+05 1.649000e+04 2.407000e+01 2.439840e+01
3.250000e+05 1.645000e+04 2.248000e+01 2.590843e+01
3.500000e+05 1.638000e+04 2.110000e+01 2.742845e+01
3.750000e+05 1.629000e+04 1.989000e+01 2.895846e+01
4.000000e+05 1.618000e+04 1.882000e+01 3.049848e+01
4.500000e+05 1.594000e+04 1.700000e+01 3.360995e+01
5.000000e+05 1.567000e+04 1.553000e+01 3.675621e+01
5.500000e+05 1.538000e+04 1.430000e+01 3.997593e+01
6.000000e+05 1.508000e+04 1.326000e+01 4.325569e+01
6.500000e+05 1.479000e+04 1.237000e+01 4.659547e+01
7.000000e+05 1.449000e+04 1.160000e+01 5.000528e+01
8.000000e+05 1.391000e+04 1.033000e+01 5.704496e+01
9.000000e+05 1.335000e+04 9.320000e+00 6.438470e+01
1.000000e+00 1.282000e+04 8.500000e+00 7.202450e+01
